{
  "AcquisitionMatrixPE": 104,
  "AcquisitionNumber": 1,
  "AcquisitionTime": "13:43:6.087500",
  "BandwidthPerPixelPhaseEncode": 17.17,
  "BaseResolution": 104,
  "BodyPartExamined": "BRAIN",
  "CoilString": "HC1-7;NC1_2",
  "ConsistencyInfo": "N4_VE11C_LATEST_20160120",
  "ConversionSoftware": "dcm2niix",
  "ConversionSoftwareVersion": "v1.0.20190902",
  "DerivedVendorReportedEchoSpacing": 0.000560011,
  "DeviceSerialNumber": "167006",
  "DwellTime": 2.1e-06,
  "EchoTime": 0.037,
  "EchoTrainLength": 104,
  "EffectiveEchoSpacing": 0.000560011,
  "FlipAngle": 52,
  "ImageComments": "Unaliased_MB4_PE3_LB",
  "ImageOrientationPatientDICOM": [0.999345, 0.0125136, 0.0339532, -0.00244179, 0.959484, -0.281753],
  "ImageType": [
    "ORIGINAL",
    "PRIMARY",
    "M",
    "MB",
    "ND",
    "MOSAIC"
],
  "ImagingFrequency": 123.259,
  "InPlanePhaseEncodingDirectionDICOM": "COL",
  "InstitutionAddress": "Chemin_Queen-Mary_4565_Montreal_District_CA_H3W_1W5",
  "InstitutionName": "IUGM",
  "InstitutionalDepartmentName": "Department",
  "MRAcquisitionType": "2D",
  "MagneticFieldStrength": 3,
  "Manufacturer": "Siemens",
  "ManufacturersModelName": "Prisma_fit",
  "Modality": "MR",
  "MultibandAccelerationFactor": 4,
  "PartialFourier": 1,
  "PatientPosition": "HFS",
  "PercentPhaseFOV": 100,
  "PhaseEncodingDirection": "j",
  "PhaseEncodingSteps": 104,
  "PhaseResolution": 1,
  "PixelBandwidth": 2290,
  "ProcedureStepDescription": "memory_things",
  "ProtocolName": "func_task-things_run-4",
  "PulseSequenceDetails": "%CustomerSeq%_cmrr_mbep2d_bold",
  "ReceiveCoilActiveElements": "HC1-7;NC1,2",
  "ReceiveCoilName": "HeadNeck_64",
  "ReconMatrixPE": 104,
  "RepetitionTime": 1.49,
  "SAR": 0.0496345,
  "ScanOptions": "FS",
  "ScanningSequence": "EP",
  "SequenceName": "epfid2d1_104",
  "SequenceVariant": "SK_SS",
  "SeriesDescription": "func_task-things_run-4",
  "SeriesNumber": 19,
  "ShimSetting": [637, -7204, -8802, 762, 44, -7, 55, -11],
  "SliceThickness": 2,
  "SliceTiming": [0, 0.785, 0.1, 0.8825, 0.1975, 0.98, 0.295, 1.08, 0.3925, 1.1775, 0.49, 1.275, 0.59, 1.3725, 0.6875, 0, 0.785, 0.1, 0.8825, 0.1975, 0.98, 0.295, 1.08, 0.3925, 1.1775, 0.49, 1.275, 0.59, 1.3725, 0.6875, 0, 0.785, 0.1, 0.8825, 0.1975, 0.98, 0.295, 1.08, 0.3925, 1.1775, 0.49, 1.275, 0.59, 1.3725, 0.6875, 0, 0.785, 0.1, 0.8825, 0.1975, 0.98, 0.295, 1.08, 0.3925, 1.1775, 0.49, 1.275, 0.59, 1.3725, 0.6875],
  "SoftwareVersions": "syngo_MR_E11",
  "SpacingBetweenSlices": 2,
  "StationName": "MRC35049",
  "TaskName": "things",
  "TotalReadoutTime": 0.0576811,
  "TxRefAmp": 236.672,
  "WipMemBlock": "3fe93beb-aa20-4960-a155-f394cf23dd35||Sequence: R016 ve11c/master r/e634e98; Dec 19 2017 11:00:25 by eja",
  "dcmmeta_affine": [
    [-1.998690128326416, -0.0048835789784789085, 0.07220669090747833, 107.31095886230469],
    [-0.02502727508544922, 1.9189674854278564, -0.5629719495773315, -71.19432830810547],
    [0.06790648400783539, 0.5635067820549011, 1.917771816253662, -71.96598052978516],
    [0.0, 0.0, 0.0, 1.0]
],
  "dcmmeta_reorient_transform": [
    [0.0, -1.0, 0.0, 103.0],
    [1.0, 0.0, 0.0, 0.0],
    [0.0, 0.0, 1.0, 0.0],
    [0.0, 0.0, 0.0, 1.0]
],
  "dcmmeta_shape": [104, 104, 60, 190],
  "dcmmeta_slice_dim": 2,
  "dcmmeta_version": 0.6,
  "global": {
    "const": {
      "AcquisitionMatrix": [104, 0, 0, 104],
      "AngioFlag": "N",
      "BitsAllocated": 16,
      "BitsStored": 16,
      "BodyPartExamined": "BRAIN",
      "Columns": 832,
      "EchoNumbers": 1,
      "EchoTime": 37.0,
      "EchoTrainLength": 104,
      "FlipAngle": 52.0,
      "HighBit": 15,
      "ImageOrientationPatient": [0.99934507862987, 0.01251363746617, 0.03395324278497, -0.0024417895986, 0.95948374823865, -0.2817533931109],
      "ImagePositionPatient": [-832.55354469473, -834.0734241038, 166.47372974032],
      "ImageType": [
        "ORIGINAL",
        "PRIMARY",
        "M",
        "MB",
        "ND",
        "MOSAIC"
],
      "ImagedNucleus": "1H",
      "ImagingFrequency": 123.258973,
      "InPlanePhaseEncodingDirection": "COL",
      "MRAcquisitionType": "2D",
      "MagneticFieldStrength": 3.0,
      "Manufacturer": "SIEMENS",
      "ManufacturerModelName": "Prisma_fit",
      "Modality": "MR",
      "NumberOfAverages": 1.0,
      "NumberOfPhaseEncodingSteps": 104,
      "PercentPhaseFieldOfView": 100.0,
      "PercentSampling": 100.0,
      "PerformedProcedureStepStartTime": "130541.861000",
      "PhotometricInterpretation": "MONOCHROME2",
      "PixelBandwidth": 2290.0,
      "PixelRepresentation": 0,
      "PixelSpacing": [2.0, 2.0],
      "ProtocolName": "func_task-things_run-4",
      "RepetitionTime": 1490.0,
      "Rows": 832,
      "SAR": 0.04963453296609,
      "SamplesPerPixel": 1,
      "ScanOptions": "FS",
      "ScanningSequence": "EP",
      "SequenceName": "epfid2d1_104",
      "SequenceVariant": [
        "SK",
        "SS"
],
      "SeriesDescription": "func_task-things_run-4",
      "SeriesNumber": 19,
      "SeriesTime": "134426.718000",
      "SliceLocation": -45.092676098572,
      "SliceThickness": 2.0,
      "SmallestImagePixelValue": 0,
      "SoftwareVersions": "syngo MR E11",
      "SpacingBetweenSlices": 2.0000000306902,
      "SpecificCharacterSet": "ISO_IR 100",
      "StudyID": "1",
      "StudyTime": "130541.765000",
      "TransmitCoilName": "Body",
      "VariableFlipAngleFlag": "N",
      "WindowCenterWidthExplanation": "Algo1",
      "dBdt": 0.0},
    "slices": {}
  },
  "time": {
    "samples": {
      "AcquisitionNumber": [1, 2, 3, 4, 5, 6, 7, 8, 9, 10, 11, 12, 13, 14, 15, 16, 17, 18, 19, 20, 21, 22, 23, 24, 25, 26, 27, 28, 29, 30, 31, 32, 33, 34, 35, 36, 37, 38, 39, 40, 41, 42, 43, 44, 45, 46, 47, 48, 49, 50, 51, 52, 53, 54, 55, 56, 57, 58, 59, 60, 61, 62, 63, 64, 65, 66, 67, 68, 69, 70, 71, 72, 73, 74, 75, 76, 77, 78, 79, 80, 81, 82, 83, 84, 85, 86, 87, 88, 89, 90, 91, 92, 93, 94, 95, 96, 97, 98, 99, 100, 101, 102, 103, 104, 105, 106, 107, 108, 109, 110, 111, 112, 113, 114, 115, 116, 117, 118, 119, 120, 121, 122, 123, 124, 125, 126, 127, 128, 129, 130, 131, 132, 133, 134, 135, 136, 137, 138, 139, 140, 141, 142, 143, 144, 145, 146, 147, 148, 149, 150, 151, 152, 153, 154, 155, 156, 157, 158, 159, 160, 161, 162, 163, 164, 165, 166, 167, 168, 169, 170, 171, 172, 173, 174, 175, 176, 177, 178, 179, 180, 181, 182, 183, 184, 185, 186, 187, 188, 189, 190],
      "AcquisitionTime": ["134306.087500", "134307.577500", "134309.067500", "134310.557500", "134312.047500", "134313.537500", "134315.027500", "134316.517500", "134318.007500", "134319.497500", "134320.987500", "134322.477500", "134323.967500", "134325.457500", "134326.947500", "134328.437500", "134329.927500", "134331.417500", "134332.907500", "134334.397500", "134335.887500", "134337.377500", "134338.867500", "134340.357500", "134341.847500", "134343.337500", "134344.827500", "134346.317500", "134347.807500", "134349.297500", "134350.787500", "134352.277500", "134353.767500", "134355.257500", "134356.747500", "134358.237500", "134359.727500", "134401.217500", "134402.707500", "134404.197500", "134405.687500", "134407.177500", "134408.667500", "134410.157500", "134411.647500", "134413.137500", "134414.627500", "134416.117500", "134417.607500", "134419.097500", "134420.587500", "134422.077500", "134423.567500", "134425.057500", "134426.547500", "134428.037500", "134429.527500", "134431.017500", "134432.507500", "134433.997500", "134435.487500", "134436.977500", "134438.467500", "134439.957500", "134441.447500", "134442.937500", "134444.427500", "134445.917500", "134447.407500", "134448.897500", "134450.387500", "134451.877500", "134453.367500", "134454.857500", "134456.347500", "134457.837500", "134459.327500", "134500.817500", "134502.307500", "134503.797500", "134505.287500", "134506.777500", "134508.267500", "134509.757500", "134511.247500", "134512.737500", "134514.227500", "134515.717500", "134517.207500", "134518.697500", "134520.187500", "134521.677500", "134523.167500", "134524.657500", "134526.147500", "134527.637500", "134529.127500", "134530.617500", "134532.107500", "134533.597500", "134535.087500", "134536.577500", "134538.067500", "134539.557500", "134541.047500", "134542.537500", "134544.027500", "134545.517500", "134547.007500", "134548.497500", "134549.987500", "134551.477500", "134552.967500", "134554.457500", "134555.947500", "134557.437500", "134558.927500", "134600.417500", "134601.907500", "134603.397500", "134604.887500", "134606.377500", "134607.867500", "134609.357500", "134610.847500", "134612.337500", "134613.827500", "134615.317500", "134616.807500", "134618.297500", "134619.787500", "134621.277500", "134622.767500", "134624.257500", "134625.747500", "134627.237500", "134628.727500", "134630.217500", "134631.707500", "134633.197500", "134634.687500", "134636.177500", "134637.667500", "134639.157500", "134640.647500", "134642.137500", "134643.627500", "134645.117500", "134646.607500", "134648.097500", "134649.587500", "134651.077500", "134652.567500", "134654.057500", "134655.547500", "134657.037500", "134658.527500", "134700.017500", "134701.507500", "134702.997500", "134704.487500", "134705.977500", "134707.467500", "134708.957500", "134710.447500", "134711.937500", "134713.427500", "134714.917500", "134716.407500", "134717.897500", "134719.387500", "134720.877500", "134722.367500", "134723.857500", "134725.347500", "134726.837500", "134728.327500", "134729.817500", "134731.307500", "134732.797500", "134734.287500", "134735.777500", "134737.267500", "134738.757500", "134740.247500", "134741.737500", "134743.227500", "134744.717500", "134746.207500", "134747.697500"],
      "ContentTime": ["134426.721000", "134426.725000", "134426.728000", "134426.732000", "134426.735000", "134426.739000", "134426.742000", "134426.746000", "134426.749000", "134426.753000", "134426.756000", "134426.759000", "134426.763000", "134426.767000", "134426.770000", "134426.774000", "134426.777000", "134426.780000", "134426.784000", "134426.787000", "134426.790000", "134426.794000", "134426.797000", "134426.800000", "134426.804000", "134426.807000", "134426.811000", "134426.814000", "134446.686000", "134446.690000", "134446.693000", "134446.697000", "134446.700000", "134446.704000", "134446.711000", "134446.715000", "134446.718000", "134446.721000", "134446.725000", "134446.728000", "134446.731000", "134446.735000", "134446.738000", "134446.742000", "134446.745000", "134446.748000", "134446.752000", "134446.756000", "134506.686000", "134506.690000", "134506.693000", "134506.705000", "134506.708000", "134506.711000", "134506.715000", "134506.718000", "134506.722000", "134506.725000", "134506.728000", "134506.732000", "134506.735000", "134506.739000", "134506.742000", "134506.746000", "134506.749000", "134506.753000", "134506.756000", "134506.760000", "134526.686000", "134526.690000", "134526.693000", "134526.697000", "134526.700000", "134526.704000", "134526.707000", "134526.710000", "134526.714000", "134526.717000", "134526.720000", "134526.724000", "134526.727000", "134526.731000", "134526.734000", "134526.737000", "134526.741000", "134526.744000", "134526.748000", "134526.751000", "134526.755000", "134606.686000", "134606.690000", "134606.693000", "134606.697000", "134606.700000", "134606.704000", "134606.708000", "134606.711000", "134606.715000", "134606.718000", "134606.722000", "134606.742000", "134606.746000", "134606.749000", "134606.753000", "134606.756000", "134606.760000", "134606.763000", "134606.766000", "134606.770000", "134606.773000", "134606.777000", "134606.780000", "134606.784000", "134606.787000", "134606.791000", "134606.794000", "134606.798000", "134606.801000", "134606.804000", "134606.808000", "134606.811000", "134646.687000", "134646.691000", "134646.694000", "134646.698000", "134646.701000", "134646.705000", "134646.708000", "134646.712000", "134646.715000", "134646.718000", "134646.722000", "134646.725000", "134646.729000", "134646.732000", "134646.736000", "134646.739000", "134646.742000", "134646.746000", "134646.751000", "134646.754000", "134646.758000", "134646.766000", "134646.770000", "134646.773000", "134646.777000", "134646.781000", "134726.686000", "134726.690000", "134726.693000", "134726.697000", "134726.700000", "134726.704000", "134726.707000", "134726.710000", "134726.714000", "134726.717000", "134726.721000", "134726.724000", "134726.727000", "134726.731000", "134726.734000", "134726.738000", "134726.741000", "134726.745000", "134726.748000", "134726.751000", "134726.755000", "134726.758000", "134726.762000", "134726.765000", "134726.768000", "134726.772000", "134726.775000", "134749.532000", "134749.538000", "134749.541000", "134749.545000", "134749.548000", "134749.552000", "134749.555000", "134749.559000", "134749.562000", "134749.566000", "134749.569000", "134749.573000", "134749.576000", "134749.580000", "134749.584000", "134749.593000"],
      "InstanceCreationTime": ["134426.721000", "134426.725000", "134426.728000", "134426.732000", "134426.735000", "134426.739000", "134426.742000", "134426.746000", "134426.749000", "134426.753000", "134426.756000", "134426.759000", "134426.763000", "134426.767000", "134426.770000", "134426.774000", "134426.777000", "134426.780000", "134426.784000", "134426.787000", "134426.790000", "134426.794000", "134426.797000", "134426.800000", "134426.804000", "134426.807000", "134426.811000", "134426.814000", "134446.686000", "134446.690000", "134446.693000", "134446.697000", "134446.700000", "134446.704000", "134446.711000", "134446.715000", "134446.718000", "134446.721000", "134446.725000", "134446.728000", "134446.731000", "134446.735000", "134446.738000", "134446.742000", "134446.745000", "134446.748000", "134446.752000", "134446.756000", "134506.686000", "134506.690000", "134506.693000", "134506.705000", "134506.708000", "134506.711000", "134506.715000", "134506.718000", "134506.722000", "134506.725000", "134506.728000", "134506.732000", "134506.735000", "134506.739000", "134506.742000", "134506.746000", "134506.749000", "134506.753000", "134506.756000", "134506.760000", "134526.686000", "134526.690000", "134526.693000", "134526.697000", "134526.700000", "134526.704000", "134526.707000", "134526.710000", "134526.714000", "134526.717000", "134526.720000", "134526.724000", "134526.727000", "134526.731000", "134526.734000", "134526.737000", "134526.741000", "134526.744000", "134526.748000", "134526.751000", "134526.755000", "134606.686000", "134606.690000", "134606.693000", "134606.697000", "134606.700000", "134606.704000", "134606.708000", "134606.711000", "134606.715000", "134606.718000", "134606.722000", "134606.742000", "134606.746000", "134606.749000", "134606.753000", "134606.756000", "134606.760000", "134606.763000", "134606.766000", "134606.770000", "134606.773000", "134606.777000", "134606.780000", "134606.784000", "134606.787000", "134606.791000", "134606.794000", "134606.798000", "134606.801000", "134606.804000", "134606.808000", "134606.811000", "134646.687000", "134646.691000", "134646.694000", "134646.698000", "134646.701000", "134646.705000", "134646.708000", "134646.712000", "134646.715000", "134646.718000", "134646.722000", "134646.725000", "134646.729000", "134646.732000", "134646.736000", "134646.739000", "134646.742000", "134646.746000", "134646.751000", "134646.754000", "134646.758000", "134646.766000", "134646.770000", "134646.773000", "134646.777000", "134646.781000", "134726.686000", "134726.690000", "134726.693000", "134726.697000", "134726.700000", "134726.704000", "134726.707000", "134726.710000", "134726.714000", "134726.717000", "134726.721000", "134726.724000", "134726.727000", "134726.731000", "134726.734000", "134726.738000", "134726.741000", "134726.745000", "134726.748000", "134726.751000", "134726.755000", "134726.758000", "134726.762000", "134726.765000", "134726.768000", "134726.772000", "134726.775000", "134749.532000", "134749.538000", "134749.541000", "134749.545000", "134749.548000", "134749.552000", "134749.555000", "134749.559000", "134749.562000", "134749.566000", "134749.569000", "134749.573000", "134749.576000", "134749.580000", "134749.584000", "134749.593000"],
      "InstanceNumber": [1, 2, 3, 4, 5, 6, 7, 8, 9, 10, 11, 12, 13, 14, 15, 16, 17, 18, 19, 20, 21, 22, 23, 24, 25, 26, 27, 28, 29, 30, 31, 32, 33, 34, 35, 36, 37, 38, 39, 40, 41, 42, 43, 44, 45, 46, 47, 48, 49, 50, 51, 52, 53, 54, 55, 56, 57, 58, 59, 60, 61, 62, 63, 64, 65, 66, 67, 68, 69, 70, 71, 72, 73, 74, 75, 76, 77, 78, 79, 80, 81, 82, 83, 84, 85, 86, 87, 88, 89, 90, 91, 92, 93, 94, 95, 96, 97, 98, 99, 100, 101, 102, 103, 104, 105, 106, 107, 108, 109, 110, 111, 112, 113, 114, 115, 116, 117, 118, 119, 120, 121, 122, 123, 124, 125, 126, 127, 128, 129, 130, 131, 132, 133, 134, 135, 136, 137, 138, 139, 140, 141, 142, 143, 144, 145, 146, 147, 148, 149, 150, 151, 152, 153, 154, 155, 156, 157, 158, 159, 160, 161, 162, 163, 164, 165, 166, 167, 168, 169, 170, 171, 172, 173, 174, 175, 176, 177, 178, 179, 180, 181, 182, 183, 184, 185, 186, 187, 188, 189, 190],
      "LargestImagePixelValue": [41123, 39837, 39487, 38839, 38341, 38483, 38958, 39350, 38786, 38816, 38991, 38964, 39236, 38718, 38784, 39018, 39134, 38806, 38579, 38933, 39083, 38502, 38760, 39325, 39161, 38510, 39204, 39230, 38361, 38821, 39523, 39310, 38238, 38783, 39267, 38735, 38915, 39233, 38978, 38664, 39050, 39557, 38536, 38683, 39129, 39006, 38295, 38874, 39359, 38619, 38570, 39298, 38571, 38669, 38904, 39559, 38245, 38730, 39674, 38616, 38350, 38873, 39501, 38860, 38728, 39348, 39399, 38138, 38385, 39035, 39738, 38607, 38894, 39112, 39025, 38721, 38627, 39114, 38758, 38839, 38206, 39362, 39081, 38283, 38069, 38706, 38994, 38125, 38722, 38933, 39330, 39019, 38186, 38939, 39523, 39035, 38578, 38708, 38763, 39424, 38841, 38156, 38634, 38831, 38657, 39652, 38511, 38409, 38866, 39598, 38833, 38460, 38708, 39332, 39276, 38402, 39041, 39088, 38057, 38580, 39241, 39382, 38483, 38875, 39173, 39455, 38245, 38356, 39042, 39718, 38228, 38471, 39184, 39267, 38018, 38752, 38987, 39249, 38614, 38492, 38422, 39028, 39075, 38346, 38145, 38502, 38806, 38826, 38298, 38359, 38957, 38812, 38358, 38376, 38778, 39230, 39263, 38486, 38431, 38237, 38816, 38320, 38303, 38381, 38688, 39240, 38142, 38529, 39073, 38511, 38952, 37829, 38821, 38586, 38934, 38115, 38202, 38624, 38897, 39265, 39077, 38047, 38186, 38843, 38765, 39258, 38126, 38550, 39188, 38888],
      "WindowCenter": [10292.0, 10235.0, 10234.0, 10260.0, 10265.0, 10271.0, 10267.0, 10258.0, 10227.0, 10235.0, 10208.0, 10216.0, 10223.0, 10224.0, 10233.0, 10234.0, 10233.0, 10227.0, 10219.0, 10225.0, 10241.0, 10237.0, 10235.0, 10234.0, 10234.0, 10238.0, 10260.0, 10259.0, 10254.0, 10259.0, 10257.0, 10268.0, 10264.0, 10263.0, 10253.0, 10235.0, 10226.0, 10216.0, 10230.0, 10242.0, 10241.0, 10248.0, 10235.0, 10233.0, 10224.0, 10217.0, 10209.0, 10224.0, 10232.0, 10223.0, 10218.0, 10223.0, 10224.0, 10235.0, 10250.0, 10250.0, 10244.0, 10244.0, 10247.0, 10227.0, 10226.0, 10218.0, 10232.0, 10226.0, 10233.0, 10240.0, 10248.0, 10239.0, 10230.0, 10241.0, 10240.0, 10241.0, 10235.0, 10242.0, 10240.0, 10235.0, 10237.0, 10243.0, 10235.0, 10228.0, 10229.0, 10233.0, 10235.0, 10230.0, 10223.0, 10236.0, 10245.0, 10238.0, 10244.0, 10242.0, 10244.0, 10241.0, 10247.0, 10258.0, 10265.0, 10269.0, 10272.0, 10259.0, 10252.0, 10251.0, 10245.0, 10239.0, 10261.0, 10236.0, 10238.0, 10232.0, 10211.0, 10186.0, 10176.0, 10178.0, 10174.0, 10175.0, 10190.0, 10213.0, 10224.0, 10221.0, 10220.0, 10218.0, 10215.0, 10233.0, 10243.0, 10248.0, 10237.0, 10255.0, 10261.0, 10268.0, 10248.0, 10240.0, 10235.0, 10232.0, 10214.0, 10228.0, 10234.0, 10234.0, 10222.0, 10235.0, 10240.0, 10250.0, 10242.0, 10244.0, 10246.0, 10257.0, 10250.0, 10232.0, 10224.0, 10228.0, 10233.0, 10239.0, 10237.0, 10240.0, 10244.0, 10228.0, 10229.0, 10236.0, 10235.0, 10242.0, 10251.0, 10238.0, 10243.0, 10232.0, 10229.0, 10223.0, 10228.0, 10228.0, 10243.0, 10243.0, 10232.0, 10238.0, 10250.0, 10246.0, 10262.0, 10257.0, 10271.0, 10262.0, 10264.0, 10231.0, 10214.0, 10211.0, 10225.0, 10240.0, 10234.0, 10224.0, 10214.0, 10209.0, 10201.0, 10228.0, 10251.0, 10275.0, 10260.0, 10226.0],
      "WindowWidth": [21947.0, 21796.0, 21783.0, 21835.0, 21845.0, 21854.0, 21840.0, 21817.0, 21747.0, 21765.0, 21703.0, 21723.0, 21736.0, 21740.0, 21759.0, 21763.0, 21758.0, 21746.0, 21727.0, 21741.0, 21777.0, 21771.0, 21766.0, 21763.0, 21763.0, 21774.0, 21821.0, 21818.0, 21810.0, 21819.0, 21816.0, 21843.0, 21837.0, 21832.0, 21805.0, 21765.0, 21743.0, 21722.0, 21752.0, 21782.0, 21777.0, 21792.0, 21765.0, 21759.0, 21738.0, 21719.0, 21704.0, 21738.0, 21756.0, 21737.0, 21728.0, 21735.0, 21739.0, 21766.0, 21800.0, 21800.0, 21790.0, 21787.0, 21789.0, 21746.0, 21743.0, 21727.0, 21755.0, 21744.0, 21759.0, 21776.0, 21795.0, 21777.0, 21756.0, 21776.0, 21775.0, 21778.0, 21765.0, 21781.0, 21776.0, 21768.0, 21773.0, 21784.0, 21764.0, 21752.0, 21756.0, 21760.0, 21768.0, 21757.0, 21742.0, 21767.0, 21789.0, 21774.0, 21784.0, 21779.0, 21784.0, 21778.0, 21796.0, 21816.0, 21834.0, 21846.0, 21852.0, 21818.0, 21802.0, 21801.0, 21790.0, 21777.0, 21824.0, 21765.0, 21772.0, 21754.0, 21709.0, 21649.0, 21625.0, 21625.0, 21622.0, 21624.0, 21659.0, 21710.0, 21739.0, 21734.0, 21730.0, 21724.0, 21721.0, 21758.0, 21784.0, 21794.0, 21773.0, 21813.0, 21825.0, 21840.0, 21796.0, 21780.0, 21764.0, 21754.0, 21719.0, 21750.0, 21762.0, 21764.0, 21738.0, 21764.0, 21774.0, 21799.0, 21780.0, 21785.0, 21791.0, 21812.0, 21798.0, 21762.0, 21742.0, 21747.0, 21759.0, 21777.0, 21771.0, 21779.0, 21785.0, 21749.0, 21751.0, 21768.0, 21765.0, 21780.0, 21800.0, 21773.0, 21782.0, 21760.0, 21750.0, 21738.0, 21750.0, 21748.0, 21784.0, 21783.0, 21761.0, 21772.0, 21797.0, 21792.0, 21829.0, 21820.0, 21848.0, 21828.0, 21832.0, 21756.0, 21718.0, 21708.0, 21740.0, 21773.0, 21760.0, 21741.0, 21718.0, 21705.0, 21687.0, 21745.0, 21802.0, 21856.0, 21818.0, 21738.0]
    },
    "slices": {}
  }
}