{
  "AcquisitionMatrixPE": 104,
  "AcquisitionNumber": 1,
  "AcquisitionTime": "13:31:18.110000",
  "BandwidthPerPixelPhaseEncode": 17.17,
  "BaseResolution": 104,
  "BodyPartExamined": "BRAIN",
  "CoilString": "HC1-7;NC1_2",
  "ConsistencyInfo": "N4_VE11C_LATEST_20160120",
  "ConversionSoftware": "dcm2niix",
  "ConversionSoftwareVersion": "v1.0.20190902",
  "DerivedVendorReportedEchoSpacing": 0.000560011,
  "DeviceSerialNumber": "167006",
  "DwellTime": 2.1e-06,
  "EchoTime": 0.037,
  "EchoTrainLength": 104,
  "EffectiveEchoSpacing": 0.000560011,
  "FlipAngle": 52,
  "ImageComments": "Unaliased_MB4_PE3_LB",
  "ImageOrientationPatientDICOM": [0.999345, 0.0125136, 0.0339532, -0.00244179, 0.959484, -0.281753],
  "ImageType": [
    "ORIGINAL",
    "PRIMARY",
    "M",
    "MB",
    "ND",
    "MOSAIC"
],
  "ImagingFrequency": 123.259,
  "InPlanePhaseEncodingDirectionDICOM": "COL",
  "InstitutionAddress": "Chemin_Queen-Mary_4565_Montreal_District_CA_H3W_1W5",
  "InstitutionName": "IUGM",
  "InstitutionalDepartmentName": "Department",
  "MRAcquisitionType": "2D",
  "MagneticFieldStrength": 3,
  "Manufacturer": "Siemens",
  "ManufacturersModelName": "Prisma_fit",
  "Modality": "MR",
  "MultibandAccelerationFactor": 4,
  "PartialFourier": 1,
  "PatientPosition": "HFS",
  "PercentPhaseFOV": 100,
  "PhaseEncodingDirection": "j",
  "PhaseEncodingSteps": 104,
  "PhaseResolution": 1,
  "PixelBandwidth": 2290,
  "ProcedureStepDescription": "memory_things",
  "ProtocolName": "func_task-things_run-2",
  "PulseSequenceDetails": "%CustomerSeq%_cmrr_mbep2d_bold",
  "ReceiveCoilActiveElements": "HC1-7;NC1,2",
  "ReceiveCoilName": "HeadNeck_64",
  "ReconMatrixPE": 104,
  "RepetitionTime": 1.49,
  "SAR": 0.0496345,
  "ScanOptions": "FS",
  "ScanningSequence": "EP",
  "SequenceName": "epfid2d1_104",
  "SequenceVariant": "SK_SS",
  "SeriesDescription": "func_task-things_run-2",
  "SeriesNumber": 13,
  "ShimSetting": [637, -7204, -8802, 762, 44, -7, 55, -11],
  "SliceThickness": 2,
  "SliceTiming": [0, 0.785, 0.0975, 0.8825, 0.195, 0.98, 0.295, 1.0775, 0.3925, 1.175, 0.49, 1.275, 0.5875, 1.3725, 0.685, 0, 0.785, 0.0975, 0.8825, 0.195, 0.98, 0.295, 1.0775, 0.3925, 1.175, 0.49, 1.275, 0.5875, 1.3725, 0.685, 0, 0.785, 0.0975, 0.8825, 0.195, 0.98, 0.295, 1.0775, 0.3925, 1.175, 0.49, 1.275, 0.5875, 1.3725, 0.685, 0, 0.785, 0.0975, 0.8825, 0.195, 0.98, 0.295, 1.0775, 0.3925, 1.175, 0.49, 1.275, 0.5875, 1.3725, 0.685],
  "SoftwareVersions": "syngo_MR_E11",
  "SpacingBetweenSlices": 2,
  "StationName": "MRC35049",
  "TaskName": "things",
  "TotalReadoutTime": 0.0576811,
  "TxRefAmp": 236.672,
  "WipMemBlock": "28469244-4ad8-4b0e-8f8d-8f223d186628||Sequence: R016 ve11c/master r/e634e98; Dec 19 2017 11:00:25 by eja",
  "dcmmeta_affine": [
    [-1.998690128326416, -0.0048835789784789085, 0.07220669090747833, 107.31095886230469],
    [-0.02502727508544922, 1.9189674854278564, -0.5629719495773315, -71.19432830810547],
    [0.06790648400783539, 0.5635067820549011, 1.917771816253662, -71.96598052978516],
    [0.0, 0.0, 0.0, 1.0]
],
  "dcmmeta_reorient_transform": [
    [0.0, -1.0, 0.0, 103.0],
    [1.0, 0.0, 0.0, 0.0],
    [0.0, 0.0, 1.0, 0.0],
    [0.0, 0.0, 0.0, 1.0]
],
  "dcmmeta_shape": [104, 104, 60, 190],
  "dcmmeta_slice_dim": 2,
  "dcmmeta_version": 0.6,
  "global": {
    "const": {
      "AcquisitionMatrix": [104, 0, 0, 104],
      "AngioFlag": "N",
      "BitsAllocated": 16,
      "BitsStored": 16,
      "BodyPartExamined": "BRAIN",
      "Columns": 832,
      "EchoNumbers": 1,
      "EchoTime": 37.0,
      "EchoTrainLength": 104,
      "FlipAngle": 52.0,
      "HighBit": 15,
      "ImageOrientationPatient": [0.99934507862987, 0.01251363746617, 0.03395324278497, -0.0024417895986, 0.95948374823865, -0.2817533931109],
      "ImagePositionPatient": [-832.55354469473, -834.0734241038, 166.47372974032],
      "ImageType": [
        "ORIGINAL",
        "PRIMARY",
        "M",
        "MB",
        "ND",
        "MOSAIC"
],
      "ImagedNucleus": "1H",
      "ImagingFrequency": 123.258966,
      "InPlanePhaseEncodingDirection": "COL",
      "MRAcquisitionType": "2D",
      "MagneticFieldStrength": 3.0,
      "Manufacturer": "SIEMENS",
      "ManufacturerModelName": "Prisma_fit",
      "Modality": "MR",
      "NumberOfAverages": 1.0,
      "NumberOfPhaseEncodingSteps": 104,
      "PercentPhaseFieldOfView": 100.0,
      "PercentSampling": 100.0,
      "PerformedProcedureStepStartTime": "130541.861000",
      "PhotometricInterpretation": "MONOCHROME2",
      "PixelBandwidth": 2290.0,
      "PixelRepresentation": 0,
      "PixelSpacing": [2.0, 2.0],
      "ProtocolName": "func_task-things_run-2",
      "RepetitionTime": 1490.0,
      "Rows": 832,
      "SAR": 0.04963453296609,
      "SamplesPerPixel": 1,
      "ScanOptions": "FS",
      "ScanningSequence": "EP",
      "SequenceName": "epfid2d1_104",
      "SequenceVariant": [
        "SK",
        "SS"
],
      "SeriesDescription": "func_task-things_run-2",
      "SeriesNumber": 13,
      "SeriesTime": "133248.860000",
      "SliceLocation": -45.092676098572,
      "SliceThickness": 2.0,
      "SmallestImagePixelValue": 0,
      "SoftwareVersions": "syngo MR E11",
      "SpacingBetweenSlices": 2.0000000306902,
      "SpecificCharacterSet": "ISO_IR 100",
      "StudyID": "1",
      "StudyTime": "130541.765000",
      "TransmitCoilName": "Body",
      "VariableFlipAngleFlag": "N",
      "WindowCenterWidthExplanation": "Algo1",
      "dBdt": 0.0},
    "slices": {}
  },
  "time": {
    "samples": {
      "AcquisitionNumber": [1, 2, 3, 4, 5, 6, 7, 8, 9, 10, 11, 12, 13, 14, 15, 16, 17, 18, 19, 20, 21, 22, 23, 24, 25, 26, 27, 28, 29, 30, 31, 32, 33, 34, 35, 36, 37, 38, 39, 40, 41, 42, 43, 44, 45, 46, 47, 48, 49, 50, 51, 52, 53, 54, 55, 56, 57, 58, 59, 60, 61, 62, 63, 64, 65, 66, 67, 68, 69, 70, 71, 72, 73, 74, 75, 76, 77, 78, 79, 80, 81, 82, 83, 84, 85, 86, 87, 88, 89, 90, 91, 92, 93, 94, 95, 96, 97, 98, 99, 100, 101, 102, 103, 104, 105, 106, 107, 108, 109, 110, 111, 112, 113, 114, 115, 116, 117, 118, 119, 120, 121, 122, 123, 124, 125, 126, 127, 128, 129, 130, 131, 132, 133, 134, 135, 136, 137, 138, 139, 140, 141, 142, 143, 144, 145, 146, 147, 148, 149, 150, 151, 152, 153, 154, 155, 156, 157, 158, 159, 160, 161, 162, 163, 164, 165, 166, 167, 168, 169, 170, 171, 172, 173, 174, 175, 176, 177, 178, 179, 180, 181, 182, 183, 184, 185, 186, 187, 188, 189, 190],
      "AcquisitionTime": ["133118.110000", "133119.600000", "133121.090000", "133122.580000", "133124.070000", "133125.560000", "133127.050000", "133128.540000", "133130.030000", "133131.520000", "133133.010000", "133134.500000", "133135.990000", "133137.480000", "133138.970000", "133140.460000", "133141.950000", "133143.440000", "133144.930000", "133146.420000", "133147.910000", "133149.400000", "133150.890000", "133152.380000", "133153.870000", "133155.360000", "133156.850000", "133158.340000", "133159.830000", "133201.320000", "133202.810000", "133204.300000", "133205.790000", "133207.280000", "133208.770000", "133210.260000", "133211.750000", "133213.240000", "133214.730000", "133216.220000", "133217.710000", "133219.200000", "133220.690000", "133222.180000", "133223.670000", "133225.160000", "133226.650000", "133228.140000", "133229.630000", "133231.120000", "133232.610000", "133234.100000", "133235.590000", "133237.080000", "133238.570000", "133240.060000", "133241.550000", "133243.040000", "133244.530000", "133246.020000", "133247.510000", "133249.000000", "133250.490000", "133251.980000", "133253.470000", "133254.960000", "133256.450000", "133257.940000", "133259.430000", "133300.920000", "133302.410000", "133303.900000", "133305.390000", "133306.880000", "133308.370000", "133309.860000", "133311.350000", "133312.840000", "133314.330000", "133315.820000", "133317.310000", "133318.800000", "133320.290000", "133321.780000", "133323.270000", "133324.760000", "133326.250000", "133327.740000", "133329.230000", "133330.720000", "133332.210000", "133333.700000", "133335.190000", "133336.680000", "133338.170000", "133339.660000", "133341.150000", "133342.640000", "133344.130000", "133345.620000", "133347.110000", "133348.600000", "133350.090000", "133351.580000", "133353.070000", "133354.560000", "133356.050000", "133357.540000", "133359.030000", "133400.520000", "133402.010000", "133403.500000", "133404.990000", "133406.480000", "133407.970000", "133409.460000", "133410.950000", "133412.440000", "133413.930000", "133415.420000", "133416.910000", "133418.400000", "133419.890000", "133421.380000", "133422.870000", "133424.360000", "133425.850000", "133427.340000", "133428.830000", "133430.320000", "133431.810000", "133433.300000", "133434.790000", "133436.280000", "133437.770000", "133439.260000", "133440.750000", "133442.240000", "133443.730000", "133445.220000", "133446.710000", "133448.200000", "133449.690000", "133451.180000", "133452.670000", "133454.160000", "133455.650000", "133457.140000", "133458.630000", "133500.120000", "133501.610000", "133503.100000", "133504.590000", "133506.080000", "133507.570000", "133509.060000", "133510.550000", "133512.040000", "133513.530000", "133515.020000", "133516.510000", "133518.000000", "133519.490000", "133520.980000", "133522.470000", "133523.960000", "133525.450000", "133526.940000", "133528.430000", "133529.920000", "133531.410000", "133532.900000", "133534.390000", "133535.880000", "133537.370000", "133538.860000", "133540.350000", "133541.840000", "133543.330000", "133544.820000", "133546.310000", "133547.800000", "133549.290000", "133550.780000", "133552.270000", "133553.760000", "133555.250000", "133556.740000", "133558.230000", "133559.720000"],
      "ContentTime": ["133248.863000", "133248.867000", "133248.871000", "133248.874000", "133248.877000", "133248.881000", "133248.884000", "133248.888000", "133248.891000", "133248.898000", "133248.902000", "133248.905000", "133248.908000", "133248.912000", "133248.915000", "133248.919000", "133248.922000", "133248.926000", "133248.929000", "133248.932000", "133248.936000", "133248.963000", "133248.967000", "133248.970000", "133248.975000", "133248.978000", "133248.982000", "133248.985000", "133248.989000", "133248.993000", "133248.996000", "133249.001000", "133249.004000", "133249.008000", "133249.011000", "133249.015000", "133249.018000", "133308.823000", "133308.827000", "133308.830000", "133308.834000", "133308.837000", "133308.841000", "133308.844000", "133308.847000", "133308.851000", "133308.859000", "133308.863000", "133308.866000", "133308.869000", "133308.873000", "133308.876000", "133308.880000", "133308.883000", "133308.887000", "133308.890000", "133308.894000", "133308.897000", "133328.823000", "133328.827000", "133328.831000", "133328.834000", "133328.838000", "133328.841000", "133328.844000", "133328.848000", "133328.851000", "133328.855000", "133328.858000", "133328.862000", "133328.865000", "133328.868000", "133328.872000", "133328.875000", "133328.879000", "133328.882000", "133328.885000", "133328.889000", "133348.822000", "133348.938000", "133348.941000", "133348.945000", "133348.948000", "133348.952000", "133348.955000", "133348.959000", "133348.962000", "133348.965000", "133348.969000", "133348.972000", "133348.976000", "133348.979000", "133348.982000", "133348.986000", "133348.990000", "133348.993000", "133348.996000", "133349.001000", "133428.823000", "133428.946000", "133428.949000", "133428.953000", "133428.956000", "133428.960000", "133428.963000", "133428.967000", "133428.970000", "133428.973000", "133428.977000", "133428.980000", "133428.984000", "133428.987000", "133428.990000", "133428.994000", "133428.997000", "133429.002000", "133429.005000", "133429.009000", "133429.012000", "133429.016000", "133429.019000", "133429.040000", "133429.044000", "133429.047000", "133429.051000", "133429.064000", "133429.067000", "133508.823000", "133508.827000", "133508.830000", "133508.834000", "133508.837000", "133508.841000", "133508.844000", "133508.848000", "133508.851000", "133508.855000", "133508.859000", "133508.862000", "133508.865000", "133508.869000", "133508.872000", "133508.876000", "133508.879000", "133508.883000", "133508.886000", "133508.890000", "133508.893000", "133508.896000", "133508.900000", "133508.903000", "133508.906000", "133508.910000", "133508.913000", "133548.823000", "133548.827000", "133548.831000", "133548.834000", "133548.837000", "133548.841000", "133548.844000", "133548.848000", "133548.851000", "133548.854000", "133548.858000", "133548.861000", "133548.864000", "133548.868000", "133548.871000", "133548.875000", "133548.878000", "133548.882000", "133548.885000", "133548.888000", "133548.892000", "133548.895000", "133548.899000", "133548.902000", "133548.905000", "133548.909000", "133548.912000", "133601.640000", "133601.643000", "133601.647000", "133601.650000", "133601.654000", "133601.657000", "133601.660000", "133601.664000", "133601.667000"],
      "InstanceCreationTime": ["133248.863000", "133248.867000", "133248.871000", "133248.874000", "133248.877000", "133248.881000", "133248.884000", "133248.888000", "133248.891000", "133248.898000", "133248.902000", "133248.905000", "133248.908000", "133248.912000", "133248.915000", "133248.919000", "133248.922000", "133248.926000", "133248.929000", "133248.932000", "133248.936000", "133248.963000", "133248.967000", "133248.970000", "133248.975000", "133248.978000", "133248.982000", "133248.985000", "133248.989000", "133248.993000", "133248.996000", "133249.001000", "133249.004000", "133249.008000", "133249.011000", "133249.015000", "133249.018000", "133308.823000", "133308.827000", "133308.830000", "133308.834000", "133308.837000", "133308.841000", "133308.844000", "133308.847000", "133308.851000", "133308.859000", "133308.863000", "133308.866000", "133308.869000", "133308.873000", "133308.876000", "133308.880000", "133308.883000", "133308.887000", "133308.890000", "133308.894000", "133308.897000", "133328.823000", "133328.827000", "133328.831000", "133328.834000", "133328.838000", "133328.841000", "133328.844000", "133328.848000", "133328.851000", "133328.855000", "133328.858000", "133328.862000", "133328.865000", "133328.868000", "133328.872000", "133328.875000", "133328.879000", "133328.882000", "133328.885000", "133328.889000", "133348.822000", "133348.938000", "133348.941000", "133348.945000", "133348.948000", "133348.952000", "133348.955000", "133348.959000", "133348.962000", "133348.965000", "133348.969000", "133348.972000", "133348.976000", "133348.979000", "133348.982000", "133348.986000", "133348.990000", "133348.993000", "133348.996000", "133349.001000", "133428.823000", "133428.946000", "133428.949000", "133428.953000", "133428.956000", "133428.960000", "133428.963000", "133428.967000", "133428.970000", "133428.973000", "133428.977000", "133428.980000", "133428.984000", "133428.987000", "133428.990000", "133428.994000", "133428.997000", "133429.002000", "133429.005000", "133429.009000", "133429.012000", "133429.016000", "133429.019000", "133429.040000", "133429.044000", "133429.047000", "133429.051000", "133429.064000", "133429.067000", "133508.823000", "133508.827000", "133508.830000", "133508.834000", "133508.837000", "133508.841000", "133508.844000", "133508.848000", "133508.851000", "133508.855000", "133508.859000", "133508.862000", "133508.865000", "133508.869000", "133508.872000", "133508.876000", "133508.879000", "133508.883000", "133508.886000", "133508.890000", "133508.893000", "133508.896000", "133508.900000", "133508.903000", "133508.906000", "133508.910000", "133508.913000", "133548.823000", "133548.827000", "133548.831000", "133548.834000", "133548.837000", "133548.841000", "133548.844000", "133548.848000", "133548.851000", "133548.854000", "133548.858000", "133548.861000", "133548.864000", "133548.868000", "133548.871000", "133548.875000", "133548.878000", "133548.882000", "133548.885000", "133548.888000", "133548.892000", "133548.895000", "133548.899000", "133548.902000", "133548.905000", "133548.909000", "133548.912000", "133601.640000", "133601.643000", "133601.647000", "133601.650000", "133601.654000", "133601.657000", "133601.660000", "133601.664000", "133601.667000"],
      "InstanceNumber": [1, 2, 3, 4, 5, 6, 7, 8, 9, 10, 11, 12, 13, 14, 15, 16, 17, 18, 19, 20, 21, 22, 23, 24, 25, 26, 27, 28, 29, 30, 31, 32, 33, 34, 35, 36, 37, 38, 39, 40, 41, 42, 43, 44, 45, 46, 47, 48, 49, 50, 51, 52, 53, 54, 55, 56, 57, 58, 59, 60, 61, 62, 63, 64, 65, 66, 67, 68, 69, 70, 71, 72, 73, 74, 75, 76, 77, 78, 79, 80, 81, 82, 83, 84, 85, 86, 87, 88, 89, 90, 91, 92, 93, 94, 95, 96, 97, 98, 99, 100, 101, 102, 103, 104, 105, 106, 107, 108, 109, 110, 111, 112, 113, 114, 115, 116, 117, 118, 119, 120, 121, 122, 123, 124, 125, 126, 127, 128, 129, 130, 131, 132, 133, 134, 135, 136, 137, 138, 139, 140, 141, 142, 143, 144, 145, 146, 147, 148, 149, 150, 151, 152, 153, 154, 155, 156, 157, 158, 159, 160, 161, 162, 163, 164, 165, 166, 167, 168, 169, 170, 171, 172, 173, 174, 175, 176, 177, 178, 179, 180, 181, 182, 183, 184, 185, 186, 187, 188, 189, 190],
      "LargestImagePixelValue": [41229, 39374, 39284, 38761, 38787, 38764, 38373, 37762, 38717, 38771, 38473, 38724, 38607, 38886, 38485, 38003, 37904, 38516, 38784, 37808, 38329, 38691, 39476, 37619, 39078, 38420, 38794, 37571, 38493, 38676, 37870, 38469, 38696, 39072, 38048, 37948, 38744, 38810, 39252, 37395, 38714, 38634, 39026, 37525, 38570, 38388, 38864, 37911, 38276, 38411, 38509, 39085, 37754, 38716, 38683, 39314, 37575, 38494, 38618, 39186, 38529, 38638, 37542, 38970, 39020, 37913, 38494, 38939, 39014, 38798, 37645, 38004, 38803, 38527, 39029, 38000, 38795, 38452, 38881, 38795, 38589, 38350, 38691, 38614, 38083, 38602, 39143, 38202, 38884, 37614, 38847, 38571, 39070, 37935, 38919, 38517, 38626, 38452, 37806, 38776, 38661, 38844, 38099, 37894, 38696, 38411, 39116, 38115, 38331, 38659, 39235, 37957, 38943, 39284, 39103, 37933, 38637, 38844, 38628, 38013, 38254, 38496, 38675, 39003, 38334, 38349, 38752, 38030, 38194, 38583, 38698, 39377, 37663, 38192, 38725, 38900, 38184, 38725, 38356, 38243, 37730, 38736, 38392, 38834, 37970, 38579, 38421, 37920, 38324, 38631, 38521, 38660, 38153, 38363, 38590, 38122, 37460, 37807, 38487, 38137, 37625, 38283, 38427, 38803, 37378, 38185, 37873, 38597, 38520, 38263, 38562, 38183, 37558, 37904, 38167, 38573, 38620, 38069, 38693, 38583, 38364, 37920, 38307, 38712, 38644, 39229, 38108, 37985, 38321, 39073],
      "WindowCenter": [10314.0, 10237.0, 10215.0, 10216.0, 10228.0, 10231.0, 10232.0, 10219.0, 10230.0, 10238.0, 10248.0, 10261.0, 10282.0, 10273.0, 10267.0, 10274.0, 10260.0, 10274.0, 10300.0, 10296.0, 10292.0, 10304.0, 10302.0, 10270.0, 10286.0, 10281.0, 10289.0, 10270.0, 10265.0, 10253.0, 10233.0, 10239.0, 10256.0, 10265.0, 10253.0, 10252.0, 10264.0, 10264.0, 10272.0, 10253.0, 10265.0, 10270.0, 10280.0, 10260.0, 10281.0, 10284.0, 10281.0, 10270.0, 10266.0, 10265.0, 10273.0, 10286.0, 10277.0, 10298.0, 10301.0, 10281.0, 10255.0, 10258.0, 10263.0, 10271.0, 10268.0, 10288.0, 10289.0, 10300.0, 10278.0, 10245.0, 10248.0, 10245.0, 10254.0, 10246.0, 10250.0, 10257.0, 10266.0, 10266.0, 10273.0, 10260.0, 10252.0, 10243.0, 10247.0, 10254.0, 10271.0, 10267.0, 10274.0, 10268.0, 10260.0, 10264.0, 10288.0, 10296.0, 10314.0, 10282.0, 10284.0, 10269.0, 10264.0, 10251.0, 10261.0, 10258.0, 10272.0, 10264.0, 10253.0, 10268.0, 10256.0, 10249.0, 10243.0, 10238.0, 10250.0, 10258.0, 10274.0, 10261.0, 10253.0, 10251.0, 10263.0, 10253.0, 10266.0, 10273.0, 10282.0, 10267.0, 10266.0, 10275.0, 10280.0, 10272.0, 10268.0, 10265.0, 10265.0, 10271.0, 10275.0, 10274.0, 10251.0, 10249.0, 10243.0, 10256.0, 10263.0, 10270.0, 10248.0, 10244.0, 10247.0, 10249.0, 10249.0, 10250.0, 10251.0, 10249.0, 10245.0, 10274.0, 10276.0, 10284.0, 10277.0, 10275.0, 10277.0, 10271.0, 10269.0, 10268.0, 10267.0, 10257.0, 10247.0, 10251.0, 10252.0, 10246.0, 10238.0, 10228.0, 10232.0, 10227.0, 10236.0, 10250.0, 10259.0, 10266.0, 10255.0, 10263.0, 10262.0, 10275.0, 10268.0, 10275.0, 10276.0, 10262.0, 10241.0, 10239.0, 10241.0, 10250.0, 10256.0, 10254.0, 10257.0, 10258.0, 10249.0, 10243.0, 10249.0, 10258.0, 10249.0, 10254.0, 10258.0, 10260.0, 10251.0, 10256.0],
      "WindowWidth": [21997.0, 21799.0, 21736.0, 21734.0, 21754.0, 21762.0, 21763.0, 21736.0, 21759.0, 21778.0, 21800.0, 21829.0, 21880.0, 21858.0, 21846.0, 21860.0, 21831.0, 21860.0, 21924.0, 21915.0, 21904.0, 21930.0, 21923.0, 21855.0, 21886.0, 21877.0, 21893.0, 21854.0, 21839.0, 21808.0, 21766.0, 21777.0, 21818.0, 21838.0, 21815.0, 21811.0, 21835.0, 21836.0, 21855.0, 21814.0, 21839.0, 21851.0, 21872.0, 21831.0, 21876.0, 21886.0, 21877.0, 21854.0, 21842.0, 21841.0, 21858.0, 21885.0, 21872.0, 21917.0, 21925.0, 21874.0, 21820.0, 21822.0, 21832.0, 21851.0, 21848.0, 21892.0, 21898.0, 21918.0, 21864.0, 21792.0, 21797.0, 21789.0, 21811.0, 21792.0, 21805.0, 21821.0, 21841.0, 21842.0, 21859.0, 21830.0, 21810.0, 21789.0, 21794.0, 21810.0, 21850.0, 21840.0, 21856.0, 21845.0, 21828.0, 21835.0, 21889.0, 21915.0, 21952.0, 21881.0, 21880.0, 21845.0, 21834.0, 21805.0, 21825.0, 21824.0, 21855.0, 21835.0, 21811.0, 21845.0, 21817.0, 21801.0, 21788.0, 21779.0, 21802.0, 21821.0, 21857.0, 21831.0, 21811.0, 21804.0, 21830.0, 21813.0, 21839.0, 21855.0, 21877.0, 21842.0, 21840.0, 21860.0, 21871.0, 21858.0, 21845.0, 21838.0, 21836.0, 21848.0, 21860.0, 21854.0, 21803.0, 21798.0, 21786.0, 21817.0, 21830.0, 21848.0, 21802.0, 21790.0, 21792.0, 21798.0, 21799.0, 21801.0, 21805.0, 21799.0, 21793.0, 21856.0, 21862.0, 21882.0, 21868.0, 21860.0, 21866.0, 21854.0, 21847.0, 21844.0, 21842.0, 21819.0, 21798.0, 21806.0, 21807.0, 21794.0, 21776.0, 21750.0, 21760.0, 21751.0, 21771.0, 21802.0, 21821.0, 21839.0, 21818.0, 21833.0, 21832.0, 21860.0, 21844.0, 21859.0, 21860.0, 21830.0, 21784.0, 21778.0, 21779.0, 21799.0, 21812.0, 21813.0, 21816.0, 21818.0, 21799.0, 21785.0, 21797.0, 21819.0, 21799.0, 21806.0, 21815.0, 21821.0, 21800.0, 21809.0]
    },
    "slices": {}
  }
}