{
  "AcquisitionMatrixPE": 104,
  "AcquisitionNumber": 1,
  "AcquisitionTime": "15:21:39.732500",
  "BandwidthPerPixelPhaseEncode": 17.17,
  "BaseResolution": 104,
  "BodyPartExamined": "BRAIN",
  "CoilString": "HC1-7;NC1_2",
  "ConsistencyInfo": "N4_VE11C_LATEST_20160120",
  "ConversionSoftware": "dcm2niix",
  "ConversionSoftwareVersion": "v1.0.20190902",
  "DerivedVendorReportedEchoSpacing": 0.000560011,
  "DeviceSerialNumber": "167006",
  "DwellTime": 2.1e-06,
  "EchoTime": 0.037,
  "EchoTrainLength": 104,
  "EffectiveEchoSpacing": 0.000560011,
  "FlipAngle": 52,
  "ImageComments": "Unaliased_MB4_PE3_LB",
  "ImageOrientationPatientDICOM": [0.999478, -0.0317855, -0.0057337, 0.0284417, 0.950275, -0.310109],
  "ImageType": [
    "ORIGINAL",
    "PRIMARY",
    "M",
    "MB",
    "ND",
    "MOSAIC"
],
  "ImagingFrequency": 123.259,
  "InPlanePhaseEncodingDirectionDICOM": "COL",
  "InstitutionAddress": "Chemin_Queen-Mary_4565_Montreal_District_CA_H3W_1W5",
  "InstitutionName": "IUGM",
  "InstitutionalDepartmentName": "Department",
  "MRAcquisitionType": "2D",
  "MagneticFieldStrength": 3,
  "Manufacturer": "Siemens",
  "ManufacturersModelName": "Prisma_fit",
  "Modality": "MR",
  "MultibandAccelerationFactor": 4,
  "PartialFourier": 1,
  "PatientPosition": "HFS",
  "PercentPhaseFOV": 100,
  "PhaseEncodingDirection": "j",
  "PhaseEncodingSteps": 104,
  "PhaseResolution": 1,
  "PixelBandwidth": 2290,
  "ProcedureStepDescription": "memory_things",
  "ProtocolName": "func_task-things_run-2",
  "PulseSequenceDetails": "%CustomerSeq%_cmrr_mbep2d_bold",
  "ReceiveCoilActiveElements": "HC1-7;NC1,2",
  "ReceiveCoilName": "HeadNeck_64",
  "ReconMatrixPE": 104,
  "RepetitionTime": 1.49,
  "SAR": 0.0427411,
  "ScanOptions": "FS",
  "ScanningSequence": "EP",
  "SequenceName": "epfid2d1_104",
  "SequenceVariant": "SK_SS",
  "SeriesDescription": "func_task-things_run-2",
  "SeriesNumber": 13,
  "ShimSetting": [625, -7258, -8829, 582, 12, -234, 0, -27],
  "SliceThickness": 2,
  "SliceTiming": [0, 0.785, 0.0975, 0.8825, 0.195, 0.98, 0.295, 1.0775, 0.3925, 1.175, 0.49, 1.275, 0.5875, 1.3725, 0.685, 0, 0.785, 0.0975, 0.8825, 0.195, 0.98, 0.295, 1.0775, 0.3925, 1.175, 0.49, 1.275, 0.5875, 1.3725, 0.685, 0, 0.785, 0.0975, 0.8825, 0.195, 0.98, 0.295, 1.0775, 0.3925, 1.175, 0.49, 1.275, 0.5875, 1.3725, 0.685, 0, 0.785, 0.0975, 0.8825, 0.195, 0.98, 0.295, 1.0775, 0.3925, 1.175, 0.49, 1.275, 0.5875, 1.3725, 0.685],
  "SoftwareVersions": "syngo_MR_E11",
  "SpacingBetweenSlices": 2,
  "StationName": "MRC35049",
  "TaskName": "things",
  "TotalReadoutTime": 0.0576811,
  "TxRefAmp": 240.089,
  "WipMemBlock": "84f0ba81-7d7f-4873-a502-ea2f26354181||Sequence: R016 ve11c/master r/e634e98; Dec 19 2017 11:00:25 by eja",
  "dcmmeta_affine": [
    [-1.998956561088562, 0.05688345059752464, -0.030611127614974976, 104.4881362915039],
    [0.06357096135616302, 1.9005508422851562, -0.6195687055587769, -69.29228210449219],
    [-0.011467399075627327, 0.6202184557914734, 1.9013673067092896, -63.357635498046875],
    [0.0, 0.0, 0.0, 1.0]
],
  "dcmmeta_reorient_transform": [
    [0.0, -1.0, 0.0, 103.0],
    [1.0, 0.0, 0.0, 0.0],
    [0.0, 0.0, 1.0, 0.0],
    [0.0, 0.0, 0.0, 1.0]
],
  "dcmmeta_shape": [104, 104, 60, 190],
  "dcmmeta_slice_dim": 2,
  "dcmmeta_version": 0.6,
  "global": {
    "const": {
      "AcquisitionMatrix": [104, 0, 0, 104],
      "AngioFlag": "N",
      "BitsAllocated": 16,
      "BitsStored": 16,
      "BodyPartExamined": "BRAIN",
      "Columns": 832,
      "EchoNumbers": 1,
      "EchoTime": 37.0,
      "EchoTrainLength": 104,
      "FlipAngle": 52.0,
      "HighBit": 15,
      "ImageOrientationPatient": [0.99947826790612, -0.0317854789964, -0.0057336993608, 0.02844172461559, 0.95027539923515, -0.3101092289974],
      "ImagePositionPatient": [-858.6728885205, -795.12511144141, 230.45851671145],
      "ImageType": [
        "ORIGINAL",
        "PRIMARY",
        "M",
        "MB",
        "ND",
        "MOSAIC"
],
      "ImagedNucleus": "1H",
      "ImagingFrequency": 123.258879,
      "InPlanePhaseEncodingDirection": "COL",
      "MRAcquisitionType": "2D",
      "MagneticFieldStrength": 3.0,
      "Manufacturer": "SIEMENS",
      "ManufacturerModelName": "Prisma_fit",
      "Modality": "MR",
      "NumberOfAverages": 1.0,
      "NumberOfPhaseEncodingSteps": 104,
      "PercentPhaseFieldOfView": 100.0,
      "PercentSampling": 100.0,
      "PerformedProcedureStepStartTime": "145027.458000",
      "PhotometricInterpretation": "MONOCHROME2",
      "PixelBandwidth": 2290.0,
      "PixelRepresentation": 0,
      "PixelSpacing": [2.0, 2.0],
      "ProtocolName": "func_task-things_run-2",
      "RepetitionTime": 1490.0,
      "Rows": 832,
      "SAR": 0.04274106902772,
      "SamplesPerPixel": 1,
      "ScanOptions": "FS",
      "ScanningSequence": "EP",
      "SequenceName": "epfid2d1_104",
      "SequenceVariant": [
        "SK",
        "SS"
],
      "SeriesDescription": "func_task-things_run-2",
      "SeriesNumber": 13,
      "SeriesTime": "152254.392000",
      "SliceLocation": -40.366653055695,
      "SliceThickness": 2.0,
      "SmallestImagePixelValue": 0,
      "SoftwareVersions": "syngo MR E11",
      "SpacingBetweenSlices": 2.0000000330041,
      "SpecificCharacterSet": "ISO_IR 100",
      "StudyID": "1",
      "StudyTime": "145027.355000",
      "TransmitCoilName": "Body",
      "VariableFlipAngleFlag": "N",
      "WindowCenterWidthExplanation": "Algo1",
      "dBdt": 0.0},
    "slices": {}
  },
  "time": {
    "samples": {
      "AcquisitionNumber": [1, 2, 3, 4, 5, 6, 7, 8, 9, 10, 11, 12, 13, 14, 15, 16, 17, 18, 19, 20, 21, 22, 23, 24, 25, 26, 27, 28, 29, 30, 31, 32, 33, 34, 35, 36, 37, 38, 39, 40, 41, 42, 43, 44, 45, 46, 47, 48, 49, 50, 51, 52, 53, 54, 55, 56, 57, 58, 59, 60, 61, 62, 63, 64, 65, 66, 67, 68, 69, 70, 71, 72, 73, 74, 75, 76, 77, 78, 79, 80, 81, 82, 83, 84, 85, 86, 87, 88, 89, 90, 91, 92, 93, 94, 95, 96, 97, 98, 99, 100, 101, 102, 103, 104, 105, 106, 107, 108, 109, 110, 111, 112, 113, 114, 115, 116, 117, 118, 119, 120, 121, 122, 123, 124, 125, 126, 127, 128, 129, 130, 131, 132, 133, 134, 135, 136, 137, 138, 139, 140, 141, 142, 143, 144, 145, 146, 147, 148, 149, 150, 151, 152, 153, 154, 155, 156, 157, 158, 159, 160, 161, 162, 163, 164, 165, 166, 167, 168, 169, 170, 171, 172, 173, 174, 175, 176, 177, 178, 179, 180, 181, 182, 183, 184, 185, 186, 187, 188, 189, 190],
      "AcquisitionTime": ["152139.732500", "152141.222500", "152142.712500", "152144.202500", "152145.692500", "152147.182500", "152148.672500", "152150.162500", "152151.652500", "152153.142500", "152154.632500", "152156.122500", "152157.612500", "152159.102500", "152200.592500", "152202.082500", "152203.572500", "152205.062500", "152206.552500", "152208.042500", "152209.532500", "152211.022500", "152212.512500", "152214.002500", "152215.492500", "152216.982500", "152218.472500", "152219.962500", "152221.452500", "152222.942500", "152224.432500", "152225.922500", "152227.412500", "152228.902500", "152230.392500", "152231.882500", "152233.372500", "152234.862500", "152236.352500", "152237.842500", "152239.332500", "152240.822500", "152242.312500", "152243.802500", "152245.292500", "152246.782500", "152248.272500", "152249.762500", "152251.252500", "152252.742500", "152254.232500", "152255.722500", "152257.212500", "152258.702500", "152300.192500", "152301.682500", "152303.172500", "152304.662500", "152306.152500", "152307.642500", "152309.132500", "152310.622500", "152312.112500", "152313.602500", "152315.092500", "152316.582500", "152318.072500", "152319.562500", "152321.052500", "152322.542500", "152324.032500", "152325.522500", "152327.012500", "152328.502500", "152329.992500", "152331.482500", "152332.972500", "152334.462500", "152335.952500", "152337.442500", "152338.932500", "152340.422500", "152341.912500", "152343.402500", "152344.892500", "152346.382500", "152347.872500", "152349.362500", "152350.852500", "152352.342500", "152353.832500", "152355.322500", "152356.812500", "152358.302500", "152359.792500", "152401.282500", "152402.772500", "152404.262500", "152405.752500", "152407.242500", "152408.732500", "152410.222500", "152411.712500", "152413.202500", "152414.692500", "152416.182500", "152417.672500", "152419.162500", "152420.652500", "152422.142500", "152423.632500", "152425.122500", "152426.612500", "152428.102500", "152429.592500", "152431.082500", "152432.572500", "152434.062500", "152435.552500", "152437.042500", "152438.532500", "152440.022500", "152441.512500", "152443.002500", "152444.492500", "152445.982500", "152447.472500", "152448.962500", "152450.452500", "152451.942500", "152453.432500", "152454.922500", "152456.412500", "152457.902500", "152459.392500", "152500.882500", "152502.372500", "152503.862500", "152505.352500", "152506.842500", "152508.332500", "152509.822500", "152511.312500", "152512.802500", "152514.292500", "152515.782500", "152517.272500", "152518.762500", "152520.252500", "152521.742500", "152523.232500", "152524.722500", "152526.212500", "152527.702500", "152529.192500", "152530.682500", "152532.172500", "152533.662500", "152535.152500", "152536.642500", "152538.132500", "152539.622500", "152541.112500", "152542.602500", "152544.092500", "152545.582500", "152547.072500", "152548.562500", "152550.052500", "152551.542500", "152553.032500", "152554.522500", "152556.012500", "152557.502500", "152558.992500", "152600.482500", "152601.972500", "152603.462500", "152604.952500", "152606.442500", "152607.932500", "152609.422500", "152610.912500", "152612.402500", "152613.892500", "152615.382500", "152616.872500", "152618.362500", "152619.852500", "152621.342500"],
      "ContentTime": ["152254.395000", "152254.398000", "152254.402000", "152254.405000", "152254.408000", "152254.411000", "152254.415000", "152254.418000", "152254.421000", "152254.424000", "152254.427000", "152254.431000", "152254.434000", "152254.445000", "152254.448000", "152254.451000", "152254.454000", "152254.458000", "152254.461000", "152254.464000", "152254.467000", "152314.393000", "152314.397000", "152314.400000", "152314.403000", "152314.406000", "152314.426000", "152314.435000", "152314.439000", "152314.442000", "152314.445000", "152314.448000", "152314.451000", "152314.455000", "152314.458000", "152314.461000", "152314.464000", "152314.468000", "152314.471000", "152314.474000", "152314.477000", "152334.393000", "152334.397000", "152334.401000", "152334.404000", "152334.408000", "152334.411000", "152334.415000", "152334.418000", "152334.422000", "152334.425000", "152334.429000", "152334.432000", "152334.436000", "152334.439000", "152334.443000", "152334.446000", "152334.450000", "152334.453000", "152334.456000", "152334.474000", "152354.393000", "152354.397000", "152354.400000", "152354.403000", "152354.406000", "152354.410000", "152354.413000", "152354.416000", "152354.419000", "152354.423000", "152354.426000", "152354.429000", "152354.432000", "152354.436000", "152354.439000", "152354.442000", "152354.445000", "152354.449000", "152354.452000", "152354.455000", "152354.458000", "152414.393000", "152414.397000", "152414.400000", "152414.403000", "152414.406000", "152414.410000", "152414.413000", "152414.416000", "152414.419000", "152414.423000", "152414.426000", "152414.429000", "152414.433000", "152414.436000", "152414.439000", "152414.442000", "152414.446000", "152414.449000", "152414.452000", "152414.455000", "152454.394000", "152454.398000", "152454.402000", "152454.406000", "152454.410000", "152454.413000", "152454.416000", "152454.419000", "152454.423000", "152454.426000", "152454.429000", "152454.432000", "152454.436000", "152454.439000", "152454.442000", "152454.445000", "152454.449000", "152454.452000", "152454.455000", "152454.458000", "152454.462000", "152454.465000", "152454.468000", "152454.471000", "152454.475000", "152454.478000", "152454.490000", "152534.393000", "152534.397000", "152534.400000", "152534.403000", "152534.406000", "152534.410000", "152534.413000", "152534.416000", "152534.419000", "152534.423000", "152534.426000", "152534.429000", "152534.433000", "152534.436000", "152534.439000", "152534.442000", "152534.446000", "152534.451000", "152534.454000", "152534.457000", "152534.460000", "152534.464000", "152534.467000", "152534.470000", "152534.473000", "152534.477000", "152534.480000", "152614.393000", "152614.397000", "152614.400000", "152614.403000", "152614.407000", "152614.410000", "152614.413000", "152614.416000", "152614.420000", "152614.423000", "152614.426000", "152614.429000", "152614.433000", "152614.436000", "152614.439000", "152614.443000", "152614.446000", "152614.449000", "152614.452000", "152614.456000", "152614.459000", "152614.468000", "152614.472000", "152614.475000", "152614.478000", "152614.481000", "152614.485000", "152623.855000", "152623.859000", "152623.862000", "152623.865000", "152623.869000", "152623.872000", "152623.876000"],
      "InstanceCreationTime": ["152254.395000", "152254.398000", "152254.402000", "152254.405000", "152254.408000", "152254.411000", "152254.415000", "152254.418000", "152254.421000", "152254.424000", "152254.427000", "152254.431000", "152254.434000", "152254.445000", "152254.448000", "152254.451000", "152254.454000", "152254.458000", "152254.461000", "152254.464000", "152254.467000", "152314.393000", "152314.397000", "152314.400000", "152314.403000", "152314.406000", "152314.426000", "152314.435000", "152314.439000", "152314.442000", "152314.445000", "152314.448000", "152314.451000", "152314.455000", "152314.458000", "152314.461000", "152314.464000", "152314.468000", "152314.471000", "152314.474000", "152314.477000", "152334.393000", "152334.397000", "152334.401000", "152334.404000", "152334.408000", "152334.411000", "152334.415000", "152334.418000", "152334.422000", "152334.425000", "152334.429000", "152334.432000", "152334.436000", "152334.439000", "152334.443000", "152334.446000", "152334.450000", "152334.453000", "152334.456000", "152334.474000", "152354.393000", "152354.397000", "152354.400000", "152354.403000", "152354.406000", "152354.410000", "152354.413000", "152354.416000", "152354.419000", "152354.423000", "152354.426000", "152354.429000", "152354.432000", "152354.436000", "152354.439000", "152354.442000", "152354.445000", "152354.449000", "152354.452000", "152354.455000", "152354.458000", "152414.393000", "152414.397000", "152414.400000", "152414.403000", "152414.406000", "152414.410000", "152414.413000", "152414.416000", "152414.419000", "152414.423000", "152414.426000", "152414.429000", "152414.433000", "152414.436000", "152414.439000", "152414.442000", "152414.446000", "152414.449000", "152414.452000", "152414.455000", "152454.394000", "152454.398000", "152454.402000", "152454.406000", "152454.410000", "152454.413000", "152454.416000", "152454.419000", "152454.423000", "152454.426000", "152454.429000", "152454.432000", "152454.436000", "152454.439000", "152454.442000", "152454.445000", "152454.449000", "152454.452000", "152454.455000", "152454.458000", "152454.462000", "152454.465000", "152454.468000", "152454.471000", "152454.475000", "152454.478000", "152454.490000", "152534.393000", "152534.397000", "152534.400000", "152534.403000", "152534.406000", "152534.410000", "152534.413000", "152534.416000", "152534.419000", "152534.423000", "152534.426000", "152534.429000", "152534.433000", "152534.436000", "152534.439000", "152534.442000", "152534.446000", "152534.451000", "152534.454000", "152534.457000", "152534.460000", "152534.464000", "152534.467000", "152534.470000", "152534.473000", "152534.477000", "152534.480000", "152614.393000", "152614.397000", "152614.400000", "152614.403000", "152614.407000", "152614.410000", "152614.413000", "152614.416000", "152614.420000", "152614.423000", "152614.426000", "152614.429000", "152614.433000", "152614.436000", "152614.439000", "152614.443000", "152614.446000", "152614.449000", "152614.452000", "152614.456000", "152614.459000", "152614.468000", "152614.472000", "152614.475000", "152614.478000", "152614.481000", "152614.485000", "152623.855000", "152623.859000", "152623.862000", "152623.865000", "152623.869000", "152623.872000", "152623.876000"],
      "InstanceNumber": [1, 2, 3, 4, 5, 6, 7, 8, 9, 10, 11, 12, 13, 14, 15, 16, 17, 18, 19, 20, 21, 22, 23, 24, 25, 26, 27, 28, 29, 30, 31, 32, 33, 34, 35, 36, 37, 38, 39, 40, 41, 42, 43, 44, 45, 46, 47, 48, 49, 50, 51, 52, 53, 54, 55, 56, 57, 58, 59, 60, 61, 62, 63, 64, 65, 66, 67, 68, 69, 70, 71, 72, 73, 74, 75, 76, 77, 78, 79, 80, 81, 82, 83, 84, 85, 86, 87, 88, 89, 90, 91, 92, 93, 94, 95, 96, 97, 98, 99, 100, 101, 102, 103, 104, 105, 106, 107, 108, 109, 110, 111, 112, 113, 114, 115, 116, 117, 118, 119, 120, 121, 122, 123, 124, 125, 126, 127, 128, 129, 130, 131, 132, 133, 134, 135, 136, 137, 138, 139, 140, 141, 142, 143, 144, 145, 146, 147, 148, 149, 150, 151, 152, 153, 154, 155, 156, 157, 158, 159, 160, 161, 162, 163, 164, 165, 166, 167, 168, 169, 170, 171, 172, 173, 174, 175, 176, 177, 178, 179, 180, 181, 182, 183, 184, 185, 186, 187, 188, 189, 190],
      "LargestImagePixelValue": [42969, 41489, 40844, 41670, 39870, 40697, 39949, 40120, 40176, 39350, 40222, 39582, 39946, 40559, 39445, 40185, 39464, 40222, 39393, 39915, 40022, 39756, 39792, 39858, 39338, 39499, 39243, 39875, 39594, 40076, 40269, 39942, 40065, 39559, 39864, 39419, 39669, 40026, 39999, 41160, 40305, 39166, 39606, 39644, 39636, 39324, 40278, 39956, 39285, 39610, 40043, 39461, 39796, 39605, 40213, 39986, 39693, 39683, 39024, 39652, 39643, 39437, 39287, 39692, 39320, 39978, 38950, 40194, 40845, 41149, 39674, 40434, 39284, 39554, 39441, 39761, 39700, 39601, 40510, 39874, 40521, 39414, 39593, 39830, 39737, 39386, 39599, 39874, 39816, 39771, 39759, 40078, 39277, 40136, 41251, 41333, 40836, 39462, 39502, 39400, 39776, 39460, 39641, 39648, 39623, 39605, 40128, 40008, 39929, 39809, 39625, 39892, 40179, 39630, 39737, 39501, 40313, 39574, 40415, 40376, 40166, 39971, 39680, 39797, 39959, 40083, 39604, 40301, 39950, 40521, 40217, 39707, 39556, 41191, 40241, 39603, 39931, 40086, 39307, 39770, 39491, 39498, 39927, 39925, 39808, 39790, 40532, 40128, 39602, 39525, 39603, 39604, 39710, 40315, 40086, 39851, 39798, 39577, 40741, 39827, 39708, 39335, 40040, 39654, 39563, 39620, 39914, 40333, 39164, 40334, 39462, 39772, 39575, 39543, 39889, 39904, 39265, 40225, 39579, 39533, 39504, 39830, 39597, 39892, 39737, 39380, 39586, 39523, 39731, 39927],
      "WindowCenter": [10500.0, 10429.0, 10390.0, 10374.0, 10360.0, 10362.0, 10352.0, 10358.0, 10357.0, 10348.0, 10356.0, 10360.0, 10359.0, 10362.0, 10355.0, 10363.0, 10346.0, 10362.0, 10353.0, 10355.0, 10351.0, 10354.0, 10342.0, 10348.0, 10337.0, 10335.0, 10343.0, 10348.0, 10352.0, 10355.0, 10364.0, 10359.0, 10357.0, 10351.0, 10348.0, 10344.0, 10350.0, 10349.0, 10356.0, 10364.0, 10363.0, 10340.0, 10324.0, 10318.0, 10310.0, 10302.0, 10319.0, 10316.0, 10311.0, 10303.0, 10307.0, 10319.0, 10323.0, 10346.0, 10372.0, 10358.0, 10336.0, 10319.0, 10312.0, 10329.0, 10331.0, 10334.0, 10335.0, 10325.0, 10328.0, 10338.0, 10329.0, 10351.0, 10363.0, 10363.0, 10339.0, 10336.0, 10348.0, 10331.0, 10323.0, 10307.0, 10307.0, 10313.0, 10318.0, 10318.0, 10323.0, 10317.0, 10331.0, 10324.0, 10323.0, 10324.0, 10348.0, 10357.0, 10352.0, 10341.0, 10335.0, 10337.0, 10340.0, 10376.0, 10400.0, 10369.0, 10340.0, 10315.0, 10298.0, 10280.0, 10263.0, 10263.0, 10256.0, 10271.0, 10272.0, 10272.0, 10292.0, 10310.0, 10335.0, 10337.0, 10339.0, 10355.0, 10357.0, 10357.0, 10372.0, 10373.0, 10377.0, 10358.0, 10352.0, 10357.0, 10359.0, 10360.0, 10331.0, 10324.0, 10315.0, 10317.0, 10326.0, 10345.0, 10331.0, 10330.0, 10323.0, 10318.0, 10320.0, 10354.0, 10350.0, 10349.0, 10340.0, 10328.0, 10308.0, 10306.0, 10321.0, 10330.0, 10335.0, 10311.0, 10286.0, 10285.0, 10316.0, 10324.0, 10321.0, 10313.0, 10310.0, 10310.0, 10326.0, 10324.0, 10324.0, 10322.0, 10317.0, 10332.0, 10349.0, 10343.0, 10328.0, 10312.0, 10308.0, 10316.0, 10322.0, 10341.0, 10340.0, 10339.0, 10308.0, 10312.0, 10302.0, 10314.0, 10315.0, 10317.0, 10301.0, 10291.0, 10284.0, 10303.0, 10314.0, 10321.0, 10325.0, 10324.0, 10332.0, 10340.0, 10335.0, 10335.0, 10334.0, 10338.0, 10350.0, 10357.0],
      "WindowWidth": [22757.0, 22555.0, 22438.0, 22387.0, 22348.0, 22344.0, 22324.0, 22332.0, 22330.0, 22314.0, 22328.0, 22338.0, 22337.0, 22341.0, 22330.0, 22345.0, 22308.0, 22338.0, 22326.0, 22323.0, 22318.0, 22327.0, 22297.0, 22312.0, 22285.0, 22284.0, 22301.0, 22313.0, 22324.0, 22328.0, 22348.0, 22337.0, 22332.0, 22321.0, 22311.0, 22306.0, 22318.0, 22315.0, 22332.0, 22345.0, 22347.0, 22300.0, 22257.0, 22244.0, 22225.0, 22209.0, 22241.0, 22238.0, 22232.0, 22210.0, 22218.0, 22251.0, 22258.0, 22308.0, 22368.0, 22336.0, 22287.0, 22249.0, 22232.0, 22268.0, 22272.0, 22284.0, 22283.0, 22261.0, 22272.0, 22290.0, 22278.0, 22317.0, 22340.0, 22340.0, 22292.0, 22282.0, 22314.0, 22274.0, 22256.0, 22219.0, 22220.0, 22230.0, 22241.0, 22242.0, 22252.0, 22247.0, 22274.0, 22258.0, 22259.0, 22262.0, 22314.0, 22336.0, 22324.0, 22300.0, 22288.0, 22290.0, 22298.0, 22380.0, 22430.0, 22357.0, 22289.0, 22237.0, 22198.0, 22161.0, 22116.0, 22116.0, 22102.0, 22135.0, 22141.0, 22140.0, 22183.0, 22225.0, 22282.0, 22287.0, 22294.0, 22328.0, 22331.0, 22334.0, 22365.0, 22372.0, 22378.0, 22339.0, 22322.0, 22331.0, 22335.0, 22337.0, 22274.0, 22258.0, 22237.0, 22240.0, 22261.0, 22304.0, 22273.0, 22271.0, 22254.0, 22243.0, 22246.0, 22319.0, 22315.0, 22315.0, 22293.0, 22264.0, 22220.0, 22215.0, 22251.0, 22273.0, 22281.0, 22227.0, 22173.0, 22172.0, 22234.0, 22257.0, 22251.0, 22233.0, 22225.0, 22226.0, 22262.0, 22257.0, 22256.0, 22250.0, 22242.0, 22277.0, 22307.0, 22301.0, 22268.0, 22229.0, 22218.0, 22237.0, 22250.0, 22295.0, 22293.0, 22289.0, 22226.0, 22224.0, 22204.0, 22230.0, 22232.0, 22239.0, 22203.0, 22179.0, 22165.0, 22206.0, 22235.0, 22250.0, 22263.0, 22257.0, 22273.0, 22291.0, 22283.0, 22284.0, 22281.0, 22288.0, 22317.0, 22330.0]
    },
    "slices": {}
  }
}