{
  "AcquisitionMatrixPE": 104,
  "AcquisitionNumber": 1,
  "AcquisitionTime": "15:14:46.132500",
  "BandwidthPerPixelPhaseEncode": 17.17,
  "BaseResolution": 104,
  "BodyPartExamined": "BRAIN",
  "CoilString": "HC1-7;NC1_2",
  "ConsistencyInfo": "N4_VE11C_LATEST_20160120",
  "ConversionSoftware": "dcm2niix",
  "ConversionSoftwareVersion": "v1.0.20190902",
  "DerivedVendorReportedEchoSpacing": 0.000560011,
  "DeviceSerialNumber": "167006",
  "DwellTime": 2.1e-06,
  "EchoTime": 0.037,
  "EchoTrainLength": 104,
  "EffectiveEchoSpacing": 0.000560011,
  "FlipAngle": 52,
  "ImageComments": "Unaliased_MB4_PE3_LB",
  "ImageOrientationPatientDICOM": [0.999478, -0.0317855, -0.0057337, 0.0284417, 0.950275, -0.310109],
  "ImageType": [
    "ORIGINAL",
    "PRIMARY",
    "P",
    "MB",
    "ND",
    "MOSAIC"
],
  "ImagingFrequency": 123.259,
  "InPlanePhaseEncodingDirectionDICOM": "COL",
  "InstitutionAddress": "Chemin_Queen-Mary_4565_Montreal_District_CA_H3W_1W5",
  "InstitutionName": "IUGM",
  "InstitutionalDepartmentName": "Department",
  "MRAcquisitionType": "2D",
  "MagneticFieldStrength": 3,
  "Manufacturer": "Siemens",
  "ManufacturersModelName": "Prisma_fit",
  "Modality": "MR",
  "MultibandAccelerationFactor": 4,
  "PartialFourier": 1,
  "PatientPosition": "HFS",
  "PercentPhaseFOV": 100,
  "PhaseEncodingDirection": "j",
  "PhaseEncodingSteps": 104,
  "PhaseResolution": 1,
  "PixelBandwidth": 2290,
  "ProcedureStepDescription": "memory_things",
  "ProtocolName": "func_task-things_run-1",
  "PulseSequenceDetails": "%CustomerSeq%_cmrr_mbep2d_bold",
  "ReceiveCoilActiveElements": "HC1-7;NC1,2",
  "ReceiveCoilName": "HeadNeck_64",
  "ReconMatrixPE": 104,
  "RepetitionTime": 1.49,
  "SAR": 0.0427411,
  "ScanOptions": "FS",
  "ScanningSequence": "EP",
  "SequenceName": "epfid2d1_104",
  "SequenceVariant": "SK_SS",
  "SeriesDescription": "func_task-things_run-1",
  "SeriesNumber": 11,
  "ShimSetting": [625, -7258, -8829, 582, 12, -234, 0, -27],
  "SliceThickness": 2,
  "SliceTiming": [0, 0.7825, 0.0975, 0.88, 0.195, 0.9775, 0.2925, 1.0775, 0.39, 1.175, 0.4875, 1.2725, 0.5875, 1.37, 0.685, 0, 0.7825, 0.0975, 0.88, 0.195, 0.9775, 0.2925, 1.0775, 0.39, 1.175, 0.4875, 1.2725, 0.5875, 1.37, 0.685, 0, 0.7825, 0.0975, 0.88, 0.195, 0.9775, 0.2925, 1.0775, 0.39, 1.175, 0.4875, 1.2725, 0.5875, 1.37, 0.685, 0, 0.7825, 0.0975, 0.88, 0.195, 0.9775, 0.2925, 1.0775, 0.39, 1.175, 0.4875, 1.2725, 0.5875, 1.37, 0.685],
  "SoftwareVersions": "syngo_MR_E11",
  "SpacingBetweenSlices": 2,
  "StationName": "MRC35049",
  "TaskName": "things",
  "TotalReadoutTime": 0.0576811,
  "TxRefAmp": 240.089,
  "WipMemBlock": "21120bb6-ed78-4d74-a7d5-50a4e31258d1||Sequence: R016 ve11c/master r/e634e98; Dec 19 2017 11:00:25 by eja",
  "dcmmeta_affine": [
    [-1.998956561088562, 0.05688345059752464, -0.030611127614974976, 104.4881362915039],
    [0.06357096135616302, 1.9005508422851562, -0.6195687055587769, -69.29228210449219],
    [-0.011467399075627327, 0.6202184557914734, 1.9013673067092896, -63.357635498046875],
    [0.0, 0.0, 0.0, 1.0]
],
  "dcmmeta_reorient_transform": [
    [0.0, -1.0, 0.0, 103.0],
    [1.0, 0.0, 0.0, 0.0],
    [0.0, 0.0, 1.0, 0.0],
    [0.0, 0.0, 0.0, 1.0]
],
  "dcmmeta_shape": [104, 104, 60, 190],
  "dcmmeta_slice_dim": 2,
  "dcmmeta_version": 0.6,
  "global": {
    "const": {
      "AcquisitionMatrix": [104, 0, 0, 104],
      "AngioFlag": "N",
      "BitsAllocated": 16,
      "BitsStored": 16,
      "BodyPartExamined": "BRAIN",
      "Columns": 832,
      "EchoNumbers": 1,
      "EchoTime": 37.0,
      "EchoTrainLength": 104,
      "FlipAngle": 52.0,
      "HighBit": 15,
      "ImageOrientationPatient": [0.99947826790612, -0.0317854789964, -0.0057336993608, 0.02844172461559, 0.95027539923515, -0.3101092289974],
      "ImagePositionPatient": [-858.6728885205, -795.12511144141, 230.45851671145],
      "ImageType": [
        "ORIGINAL",
        "PRIMARY",
        "P",
        "MB",
        "ND",
        "MOSAIC"
],
      "ImagedNucleus": "1H",
      "ImagingFrequency": 123.258876,
      "InPlanePhaseEncodingDirection": "COL",
      "LargestImagePixelValue": 4095,
      "MRAcquisitionType": "2D",
      "MagneticFieldStrength": 3.0,
      "Manufacturer": "SIEMENS",
      "ManufacturerModelName": "Prisma_fit",
      "Modality": "MR",
      "NumberOfAverages": 1.0,
      "NumberOfPhaseEncodingSteps": 104,
      "PercentPhaseFieldOfView": 100.0,
      "PercentSampling": 100.0,
      "PerformedProcedureStepStartTime": "145027.458000",
      "PhotometricInterpretation": "MONOCHROME2",
      "PixelBandwidth": 2290.0,
      "PixelRepresentation": 0,
      "PixelSpacing": [2.0, 2.0],
      "ProtocolName": "func_task-things_run-1",
      "RepetitionTime": 1490.0,
      "RescaleIntercept": -4096.0,
      "RescaleSlope": 2.0,
      "RescaleType": "US",
      "Rows": 832,
      "SAR": 0.04274106902772,
      "SamplesPerPixel": 1,
      "ScanOptions": "FS",
      "ScanningSequence": "EP",
      "SequenceName": "epfid2d1_104",
      "SequenceVariant": [
        "SK",
        "SS"
],
      "SeriesDescription": "func_task-things_run-1",
      "SeriesNumber": 11,
      "SeriesTime": "151615.373000",
      "SliceLocation": -40.366653055695,
      "SliceThickness": 2.0,
      "SmallestImagePixelValue": 0,
      "SoftwareVersions": "syngo MR E11",
      "SpacingBetweenSlices": 2.0000000330041,
      "SpecificCharacterSet": "ISO_IR 100",
      "StudyID": "1",
      "StudyTime": "145027.355000",
      "TransmitCoilName": "Body",
      "VariableFlipAngleFlag": "N",
      "WindowCenterWidthExplanation": "Algo1",
      "dBdt": 0.0},
    "slices": {}
  },
  "time": {
    "samples": {
      "AcquisitionNumber": [1, 2, 3, 4, 5, 6, 7, 8, 9, 10, 11, 12, 13, 14, 15, 16, 17, 18, 19, 20, 21, 22, 23, 24, 25, 26, 27, 28, 29, 30, 31, 32, 33, 34, 35, 36, 37, 38, 39, 40, 41, 42, 43, 44, 45, 46, 47, 48, 49, 50, 51, 52, 53, 54, 55, 56, 57, 58, 59, 60, 61, 62, 63, 64, 65, 66, 67, 68, 69, 70, 71, 72, 73, 74, 75, 76, 77, 78, 79, 80, 81, 82, 83, 84, 85, 86, 87, 88, 89, 90, 91, 92, 93, 94, 95, 96, 97, 98, 99, 100, 101, 102, 103, 104, 105, 106, 107, 108, 109, 110, 111, 112, 113, 114, 115, 116, 117, 118, 119, 120, 121, 122, 123, 124, 125, 126, 127, 128, 129, 130, 131, 132, 133, 134, 135, 136, 137, 138, 139, 140, 141, 142, 143, 144, 145, 146, 147, 148, 149, 150, 151, 152, 153, 154, 155, 156, 157, 158, 159, 160, 161, 162, 163, 164, 165, 166, 167, 168, 169, 170, 171, 172, 173, 174, 175, 176, 177, 178, 179, 180, 181, 182, 183, 184, 185, 186, 187, 188, 189, 190],
      "AcquisitionTime": ["151446.132500", "151447.622500", "151449.112500", "151450.602500", "151452.092500", "151453.582500", "151455.072500", "151456.562500", "151458.052500", "151459.542500", "151501.032500", "151502.522500", "151504.012500", "151505.502500", "151506.992500", "151508.482500", "151509.972500", "151511.462500", "151512.952500", "151514.442500", "151515.932500", "151517.422500", "151518.912500", "151520.402500", "151521.892500", "151523.382500", "151524.872500", "151526.362500", "151527.852500", "151529.342500", "151530.832500", "151532.322500", "151533.812500", "151535.302500", "151536.792500", "151538.282500", "151539.772500", "151541.262500", "151542.752500", "151544.242500", "151545.732500", "151547.222500", "151548.712500", "151550.202500", "151551.692500", "151553.182500", "151554.672500", "151556.162500", "151557.652500", "151559.142500", "151600.632500", "151602.122500", "151603.612500", "151605.102500", "151606.592500", "151608.082500", "151609.572500", "151611.062500", "151612.552500", "151614.042500", "151615.532500", "151617.022500", "151618.512500", "151620.002500", "151621.492500", "151622.982500", "151624.472500", "151625.962500", "151627.452500", "151628.942500", "151630.432500", "151631.922500", "151633.412500", "151634.902500", "151636.392500", "151637.882500", "151639.372500", "151640.862500", "151642.352500", "151643.842500", "151645.332500", "151646.822500", "151648.312500", "151649.802500", "151651.292500", "151652.782500", "151654.272500", "151655.762500", "151657.252500", "151658.742500", "151700.232500", "151701.722500", "151703.212500", "151704.702500", "151706.192500", "151707.682500", "151709.172500", "151710.662500", "151712.152500", "151713.642500", "151715.132500", "151716.622500", "151718.112500", "151719.602500", "151721.092500", "151722.582500", "151724.072500", "151725.562500", "151727.052500", "151728.542500", "151730.032500", "151731.522500", "151733.012500", "151734.502500", "151735.992500", "151737.482500", "151738.972500", "151740.462500", "151741.952500", "151743.442500", "151744.932500", "151746.422500", "151747.912500", "151749.402500", "151750.892500", "151752.382500", "151753.872500", "151755.362500", "151756.852500", "151758.342500", "151759.832500", "151801.322500", "151802.812500", "151804.302500", "151805.792500", "151807.282500", "151808.772500", "151810.262500", "151811.752500", "151813.242500", "151814.732500", "151816.222500", "151817.712500", "151819.202500", "151820.692500", "151822.182500", "151823.672500", "151825.162500", "151826.652500", "151828.142500", "151829.632500", "151831.122500", "151832.612500", "151834.102500", "151835.592500", "151837.082500", "151838.572500", "151840.062500", "151841.552500", "151843.042500", "151844.532500", "151846.022500", "151847.512500", "151849.002500", "151850.492500", "151851.982500", "151853.472500", "151854.962500", "151856.452500", "151857.942500", "151859.432500", "151900.922500", "151902.412500", "151903.902500", "151905.392500", "151906.882500", "151908.372500", "151909.862500", "151911.352500", "151912.842500", "151914.332500", "151915.822500", "151917.312500", "151918.802500", "151920.292500", "151921.782500", "151923.272500", "151924.762500", "151926.252500", "151927.742500"],
      "ContentTime": ["151615.375000", "151615.378000", "151615.380000", "151615.383000", "151615.385000", "151615.387000", "151615.390000", "151615.392000", "151615.395000", "151615.397000", "151615.400000", "151615.402000", "151615.405000", "151615.407000", "151615.410000", "151615.412000", "151615.415000", "151615.417000", "151615.420000", "151615.422000", "151615.438000", "151615.441000", "151615.444000", "151615.447000", "151615.450000", "151615.453000", "151615.456000", "151615.459000", "151615.461000", "151615.464000", "151615.466000", "151615.469000", "151615.472000", "151635.258000", "151635.260000", "151635.263000", "151635.265000", "151635.268000", "151635.270000", "151635.273000", "151635.275000", "151635.278000", "151635.280000", "151635.282000", "151635.285000", "151635.287000", "151635.290000", "151635.292000", "151635.295000", "151635.297000", "151635.300000", "151635.302000", "151635.305000", "151655.274000", "151655.277000", "151655.279000", "151655.282000", "151655.284000", "151655.287000", "151655.289000", "151655.292000", "151655.294000", "151655.297000", "151655.299000", "151655.301000", "151655.304000", "151655.306000", "151655.309000", "151655.311000", "151655.314000", "151655.316000", "151655.319000", "151655.321000", "151655.324000", "151715.873000", "151715.875000", "151715.878000", "151715.880000", "151715.883000", "151715.885000", "151715.888000", "151715.890000", "151715.893000", "151715.895000", "151715.898000", "151715.908000", "151715.910000", "151715.913000", "151715.915000", "151715.918000", "151715.920000", "151715.923000", "151715.925000", "151715.928000", "151755.299000", "151755.302000", "151755.305000", "151755.307000", "151755.323000", "151755.326000", "151755.328000", "151755.331000", "151755.333000", "151755.336000", "151755.338000", "151755.341000", "151755.343000", "151755.352000", "151755.354000", "151755.357000", "151755.359000", "151755.362000", "151755.364000", "151755.367000", "151755.369000", "151755.372000", "151755.374000", "151755.377000", "151755.379000", "151755.382000", "151755.384000", "151755.387000", "151755.389000", "151755.392000", "151755.394000", "151755.396000", "151835.289000", "151835.292000", "151835.295000", "151835.297000", "151835.300000", "151835.302000", "151835.305000", "151835.307000", "151835.310000", "151835.312000", "151835.315000", "151835.317000", "151835.319000", "151835.322000", "151835.324000", "151835.327000", "151835.336000", "151835.339000", "151835.341000", "151835.344000", "151835.346000", "151835.349000", "151835.351000", "151835.354000", "151835.356000", "151835.359000", "151915.303000", "151915.305000", "151915.308000", "151915.310000", "151915.321000", "151915.324000", "151915.326000", "151915.329000", "151915.331000", "151915.334000", "151915.336000", "151915.339000", "151915.341000", "151915.344000", "151915.346000", "151915.349000", "151915.351000", "151915.354000", "151915.356000", "151915.359000", "151915.361000", "151915.364000", "151915.366000", "151915.369000", "151915.371000", "151915.374000", "151915.376000", "151930.447000", "151930.450000", "151930.452000", "151930.455000", "151930.457000", "151930.460000", "151930.462000", "151930.465000", "151930.468000", "151930.470000", "151930.473000"],
      "InstanceCreationTime": ["151615.375000", "151615.378000", "151615.380000", "151615.383000", "151615.385000", "151615.387000", "151615.390000", "151615.392000", "151615.395000", "151615.397000", "151615.400000", "151615.402000", "151615.405000", "151615.407000", "151615.410000", "151615.412000", "151615.415000", "151615.417000", "151615.420000", "151615.422000", "151615.438000", "151615.441000", "151615.444000", "151615.447000", "151615.450000", "151615.453000", "151615.456000", "151615.459000", "151615.461000", "151615.464000", "151615.466000", "151615.469000", "151615.472000", "151635.258000", "151635.260000", "151635.263000", "151635.265000", "151635.268000", "151635.270000", "151635.273000", "151635.275000", "151635.278000", "151635.280000", "151635.282000", "151635.285000", "151635.287000", "151635.290000", "151635.292000", "151635.295000", "151635.297000", "151635.300000", "151635.302000", "151635.305000", "151655.274000", "151655.277000", "151655.279000", "151655.282000", "151655.284000", "151655.287000", "151655.289000", "151655.292000", "151655.294000", "151655.297000", "151655.299000", "151655.301000", "151655.304000", "151655.306000", "151655.309000", "151655.311000", "151655.314000", "151655.316000", "151655.319000", "151655.321000", "151655.324000", "151715.873000", "151715.875000", "151715.878000", "151715.880000", "151715.883000", "151715.885000", "151715.888000", "151715.890000", "151715.893000", "151715.895000", "151715.898000", "151715.908000", "151715.910000", "151715.913000", "151715.915000", "151715.918000", "151715.920000", "151715.923000", "151715.925000", "151715.928000", "151755.299000", "151755.302000", "151755.305000", "151755.307000", "151755.323000", "151755.326000", "151755.328000", "151755.331000", "151755.333000", "151755.336000", "151755.338000", "151755.341000", "151755.343000", "151755.352000", "151755.354000", "151755.357000", "151755.359000", "151755.362000", "151755.364000", "151755.367000", "151755.369000", "151755.372000", "151755.374000", "151755.377000", "151755.379000", "151755.382000", "151755.384000", "151755.387000", "151755.389000", "151755.392000", "151755.394000", "151755.396000", "151835.289000", "151835.292000", "151835.295000", "151835.297000", "151835.300000", "151835.302000", "151835.305000", "151835.307000", "151835.310000", "151835.312000", "151835.315000", "151835.317000", "151835.319000", "151835.322000", "151835.324000", "151835.327000", "151835.336000", "151835.339000", "151835.341000", "151835.344000", "151835.346000", "151835.349000", "151835.351000", "151835.354000", "151835.356000", "151835.359000", "151915.303000", "151915.305000", "151915.308000", "151915.310000", "151915.321000", "151915.324000", "151915.326000", "151915.329000", "151915.331000", "151915.334000", "151915.336000", "151915.339000", "151915.341000", "151915.344000", "151915.346000", "151915.349000", "151915.351000", "151915.354000", "151915.356000", "151915.359000", "151915.361000", "151915.364000", "151915.366000", "151915.369000", "151915.371000", "151915.374000", "151915.376000", "151930.447000", "151930.450000", "151930.452000", "151930.455000", "151930.457000", "151930.460000", "151930.462000", "151930.465000", "151930.468000", "151930.470000", "151930.473000"],
      "InstanceNumber": [1, 2, 3, 4, 5, 6, 7, 8, 9, 10, 11, 12, 13, 14, 15, 16, 17, 18, 19, 20, 21, 22, 23, 24, 25, 26, 27, 28, 29, 30, 31, 32, 33, 34, 35, 36, 37, 38, 39, 40, 41, 42, 43, 44, 45, 46, 47, 48, 49, 50, 51, 52, 53, 54, 55, 56, 57, 58, 59, 60, 61, 62, 63, 64, 65, 66, 67, 68, 69, 70, 71, 72, 73, 74, 75, 76, 77, 78, 79, 80, 81, 82, 83, 84, 85, 86, 87, 88, 89, 90, 91, 92, 93, 94, 95, 96, 97, 98, 99, 100, 101, 102, 103, 104, 105, 106, 107, 108, 109, 110, 111, 112, 113, 114, 115, 116, 117, 118, 119, 120, 121, 122, 123, 124, 125, 126, 127, 128, 129, 130, 131, 132, 133, 134, 135, 136, 137, 138, 139, 140, 141, 142, 143, 144, 145, 146, 147, 148, 149, 150, 151, 152, 153, 154, 155, 156, 157, 158, 159, 160, 161, 162, 163, 164, 165, 166, 167, 168, 169, 170, 171, 172, 173, 174, 175, 176, 177, 178, 179, 180, 181, 182, 183, 184, 185, 186, 187, 188, 189, 190],
      "WindowCenter": [4810.0, 4816.0, 4808.0, 4810.0, 4812.0, 4810.0, 4812.0, 4818.0, 4818.0, 4808.0, 4804.0, 4802.0, 4804.0, 4808.0, 4812.0, 4814.0, 4814.0, 4816.0, 4814.0, 4818.0, 4816.0, 4804.0, 4812.0, 4810.0, 4816.0, 4812.0, 4808.0, 4806.0, 4814.0, 4814.0, 4810.0, 4814.0, 4812.0, 4812.0, 4808.0, 4812.0, 4812.0, 4812.0, 4816.0, 4814.0, 4816.0, 4810.0, 4816.0, 4814.0, 4812.0, 4812.0, 4814.0, 4812.0, 4810.0, 4814.0, 4814.0, 4812.0, 4816.0, 4814.0, 4812.0, 4814.0, 4814.0, 4812.0, 4814.0, 4816.0, 4814.0, 4816.0, 4812.0, 4814.0, 4814.0, 4814.0, 4814.0, 4814.0, 4814.0, 4818.0, 4814.0, 4812.0, 4814.0, 4814.0, 4808.0, 4812.0, 4814.0, 4810.0, 4814.0, 4812.0, 4816.0, 4816.0, 4816.0, 4814.0, 4812.0, 4816.0, 4812.0, 4810.0, 4814.0, 4812.0, 4812.0, 4814.0, 4812.0, 4810.0, 4816.0, 4810.0, 4814.0, 4816.0, 4810.0, 4810.0, 4810.0, 4816.0, 4814.0, 4816.0, 4814.0, 4812.0, 4814.0, 4812.0, 4816.0, 4812.0, 4814.0, 4816.0, 4816.0, 4814.0, 4812.0, 4814.0, 4810.0, 4814.0, 4814.0, 4812.0, 4816.0, 4812.0, 4816.0, 4812.0, 4810.0, 4812.0, 4812.0, 4814.0, 4816.0, 4812.0, 4814.0, 4812.0, 4814.0, 4812.0, 4810.0, 4816.0, 4812.0, 4810.0, 4816.0, 4812.0, 4812.0, 4816.0, 4816.0, 4814.0, 4812.0, 4812.0, 4810.0, 4816.0, 4816.0, 4814.0, 4816.0, 4812.0, 4812.0, 4814.0, 4812.0, 4816.0, 4812.0, 4814.0, 4816.0, 4818.0, 4816.0, 4814.0, 4812.0, 4816.0, 4814.0, 4812.0, 4818.0, 4812.0, 4816.0, 4816.0, 4814.0, 4816.0, 4816.0, 4812.0, 4814.0, 4814.0, 4812.0, 4814.0, 4842.0, 4814.0, 4814.0, 4818.0, 4812.0, 4810.0, 4814.0, 4814.0, 4816.0, 4814.0, 4812.0, 4818.0],
      "WindowWidth": [18618.0, 18624.0, 18616.0, 18616.0, 18620.0, 18616.0, 18616.0, 18614.0, 18618.0, 18616.0, 18604.0, 18602.0, 18602.0, 18612.0, 18618.0, 18618.0, 18614.0, 18616.0, 18618.0, 18622.0, 18616.0, 18604.0, 18616.0, 18612.0, 18624.0, 18618.0, 18616.0, 18616.0, 18624.0, 18620.0, 18618.0, 18620.0, 18622.0, 18620.0, 18616.0, 18622.0, 18618.0, 18616.0, 18624.0, 18622.0, 18622.0, 18614.0, 18624.0, 18630.0, 18616.0, 18618.0, 18618.0, 18616.0, 18614.0, 18622.0, 18620.0, 18614.0, 18620.0, 18618.0, 18620.0, 18620.0, 18618.0, 18616.0, 18620.0, 18628.0, 18618.0, 18618.0, 18624.0, 18618.0, 18620.0, 18618.0, 18618.0, 18626.0, 18620.0, 18622.0, 18620.0, 18618.0, 18622.0, 18618.0, 18614.0, 18614.0, 18616.0, 18620.0, 18620.0, 18618.0, 18620.0, 18620.0, 18616.0, 18614.0, 18618.0, 18622.0, 18624.0, 18614.0, 18620.0, 18618.0, 18614.0, 18618.0, 18620.0, 18616.0, 18622.0, 18618.0, 18616.0, 18624.0, 18616.0, 18618.0, 18618.0, 18622.0, 18622.0, 18620.0, 18624.0, 18614.0, 18618.0, 18620.0, 18624.0, 18620.0, 18618.0, 18622.0, 18624.0, 18614.0, 18620.0, 18618.0, 18616.0, 18622.0, 18622.0, 18620.0, 18620.0, 18624.0, 18616.0, 18616.0, 18616.0, 18620.0, 18618.0, 18620.0, 18624.0, 18618.0, 18618.0, 18622.0, 18618.0, 18614.0, 18614.0, 18616.0, 18614.0, 18618.0, 18620.0, 18620.0, 18616.0, 18620.0, 18614.0, 18620.0, 18620.0, 18624.0, 18620.0, 18620.0, 18616.0, 18622.0, 18620.0, 18622.0, 18612.0, 18618.0, 18618.0, 18616.0, 18618.0, 18618.0, 18622.0, 18624.0, 18620.0, 18620.0, 18618.0, 18622.0, 18622.0, 18620.0, 18622.0, 18616.0, 18620.0, 18616.0, 18618.0, 18622.0, 18618.0, 18622.0, 18614.0, 18616.0, 18618.0, 18616.0, 18652.0, 18620.0, 18616.0, 18622.0, 18618.0, 18614.0, 18622.0, 18618.0, 18618.0, 18616.0, 18614.0, 18620.0]
    },
    "slices": {}
  }
}