{
  "AcquisitionMatrixPE": 104,
  "AcquisitionNumber": 1,
  "AcquisitionTime": "15:28:40.600000",
  "BandwidthPerPixelPhaseEncode": 17.17,
  "BaseResolution": 104,
  "BodyPartExamined": "BRAIN",
  "CoilString": "HC1-7;NC1_2",
  "ConsistencyInfo": "N4_VE11C_LATEST_20160120",
  "ConversionSoftware": "dcm2niix",
  "ConversionSoftwareVersion": "v1.0.20190902",
  "DerivedVendorReportedEchoSpacing": 0.000560011,
  "DeviceSerialNumber": "167006",
  "DwellTime": 2.1e-06,
  "EchoTime": 0.037,
  "EchoTrainLength": 104,
  "EffectiveEchoSpacing": 0.000560011,
  "FlipAngle": 52,
  "ImageComments": "Unaliased_MB4_PE3_LB",
  "ImageOrientationPatientDICOM": [0.999478, -0.0317855, -0.0057337, 0.0284417, 0.950275, -0.310109],
  "ImageType": [
    "ORIGINAL",
    "PRIMARY",
    "M",
    "MB",
    "ND",
    "MOSAIC"
],
  "ImagingFrequency": 123.259,
  "InPlanePhaseEncodingDirectionDICOM": "COL",
  "InstitutionAddress": "Chemin_Queen-Mary_4565_Montreal_District_CA_H3W_1W5",
  "InstitutionName": "IUGM",
  "InstitutionalDepartmentName": "Department",
  "MRAcquisitionType": "2D",
  "MagneticFieldStrength": 3,
  "Manufacturer": "Siemens",
  "ManufacturersModelName": "Prisma_fit",
  "Modality": "MR",
  "MultibandAccelerationFactor": 4,
  "PartialFourier": 1,
  "PatientPosition": "HFS",
  "PercentPhaseFOV": 100,
  "PhaseEncodingDirection": "j",
  "PhaseEncodingSteps": 104,
  "PhaseResolution": 1,
  "PixelBandwidth": 2290,
  "ProcedureStepDescription": "memory_things",
  "ProtocolName": "func_task-things_run-3",
  "PulseSequenceDetails": "%CustomerSeq%_cmrr_mbep2d_bold",
  "ReceiveCoilActiveElements": "HC1-7;NC1,2",
  "ReceiveCoilName": "HeadNeck_64",
  "ReconMatrixPE": 104,
  "RepetitionTime": 1.49,
  "SAR": 0.0427411,
  "ScanOptions": "FS",
  "ScanningSequence": "EP",
  "SequenceName": "epfid2d1_104",
  "SequenceVariant": "SK_SS",
  "SeriesDescription": "func_task-things_run-3",
  "SeriesNumber": 16,
  "ShimSetting": [625, -7258, -8829, 582, 12, -234, 0, -27],
  "SliceThickness": 2,
  "SliceTiming": [0, 0.785, 0.0975, 0.8825, 0.1975, 0.98, 0.295, 1.0775, 0.3925, 1.1775, 0.49, 1.275, 0.5875, 1.3725, 0.6875, 0, 0.785, 0.0975, 0.8825, 0.1975, 0.98, 0.295, 1.0775, 0.3925, 1.1775, 0.49, 1.275, 0.5875, 1.3725, 0.6875, 0, 0.785, 0.0975, 0.8825, 0.1975, 0.98, 0.295, 1.0775, 0.3925, 1.1775, 0.49, 1.275, 0.5875, 1.3725, 0.6875, 0, 0.785, 0.0975, 0.8825, 0.1975, 0.98, 0.295, 1.0775, 0.3925, 1.1775, 0.49, 1.275, 0.5875, 1.3725, 0.6875],
  "SoftwareVersions": "syngo_MR_E11",
  "SpacingBetweenSlices": 2,
  "StationName": "MRC35049",
  "TaskName": "things",
  "TotalReadoutTime": 0.0576811,
  "TxRefAmp": 240.089,
  "WipMemBlock": "64d0da39-3a1a-439c-bcc6-85855ff3c0d1||Sequence: R016 ve11c/master r/e634e98; Dec 19 2017 11:00:25 by eja",
  "dcmmeta_affine": [
    [-1.998956561088562, 0.05688345059752464, -0.030611127614974976, 104.4881362915039],
    [0.06357096135616302, 1.9005508422851562, -0.6195687055587769, -69.29228210449219],
    [-0.011467399075627327, 0.6202184557914734, 1.9013673067092896, -63.357635498046875],
    [0.0, 0.0, 0.0, 1.0]
],
  "dcmmeta_reorient_transform": [
    [0.0, -1.0, 0.0, 103.0],
    [1.0, 0.0, 0.0, 0.0],
    [0.0, 0.0, 1.0, 0.0],
    [0.0, 0.0, 0.0, 1.0]
],
  "dcmmeta_shape": [104, 104, 60, 190],
  "dcmmeta_slice_dim": 2,
  "dcmmeta_version": 0.6,
  "global": {
    "const": {
      "AcquisitionMatrix": [104, 0, 0, 104],
      "AngioFlag": "N",
      "BitsAllocated": 16,
      "BitsStored": 16,
      "BodyPartExamined": "BRAIN",
      "Columns": 832,
      "EchoNumbers": 1,
      "EchoTime": 37.0,
      "EchoTrainLength": 104,
      "FlipAngle": 52.0,
      "HighBit": 15,
      "ImageOrientationPatient": [0.99947826790612, -0.0317854789964, -0.0057336993608, 0.02844172461559, 0.95027539923515, -0.3101092289974],
      "ImagePositionPatient": [-858.6728885205, -795.12511144141, 230.45851671145],
      "ImageType": [
        "ORIGINAL",
        "PRIMARY",
        "M",
        "MB",
        "ND",
        "MOSAIC"
],
      "ImagedNucleus": "1H",
      "ImagingFrequency": 123.258883,
      "InPlanePhaseEncodingDirection": "COL",
      "MRAcquisitionType": "2D",
      "MagneticFieldStrength": 3.0,
      "Manufacturer": "SIEMENS",
      "ManufacturerModelName": "Prisma_fit",
      "Modality": "MR",
      "NumberOfAverages": 1.0,
      "NumberOfPhaseEncodingSteps": 104,
      "PercentPhaseFieldOfView": 100.0,
      "PercentSampling": 100.0,
      "PerformedProcedureStepStartTime": "145027.458000",
      "PhotometricInterpretation": "MONOCHROME2",
      "PixelBandwidth": 2290.0,
      "PixelRepresentation": 0,
      "PixelSpacing": [2.0, 2.0],
      "ProtocolName": "func_task-things_run-3",
      "RepetitionTime": 1490.0,
      "Rows": 832,
      "SAR": 0.04274106902772,
      "SamplesPerPixel": 1,
      "ScanOptions": "FS",
      "ScanningSequence": "EP",
      "SequenceName": "epfid2d1_104",
      "SequenceVariant": [
        "SK",
        "SS"
],
      "SeriesDescription": "func_task-things_run-3",
      "SeriesNumber": 16,
      "SeriesTime": "153003.441000",
      "SliceLocation": -40.366653055695,
      "SliceThickness": 2.0,
      "SmallestImagePixelValue": 0,
      "SoftwareVersions": "syngo MR E11",
      "SpacingBetweenSlices": 2.0000000330041,
      "SpecificCharacterSet": "ISO_IR 100",
      "StudyID": "1",
      "StudyTime": "145027.355000",
      "TransmitCoilName": "Body",
      "VariableFlipAngleFlag": "N",
      "WindowCenterWidthExplanation": "Algo1",
      "dBdt": 0.0},
    "slices": {}
  },
  "time": {
    "samples": {
      "AcquisitionNumber": [1, 2, 3, 4, 5, 6, 7, 8, 9, 10, 11, 12, 13, 14, 15, 16, 17, 18, 19, 20, 21, 22, 23, 24, 25, 26, 27, 28, 29, 30, 31, 32, 33, 34, 35, 36, 37, 38, 39, 40, 41, 42, 43, 44, 45, 46, 47, 48, 49, 50, 51, 52, 53, 54, 55, 56, 57, 58, 59, 60, 61, 62, 63, 64, 65, 66, 67, 68, 69, 70, 71, 72, 73, 74, 75, 76, 77, 78, 79, 80, 81, 82, 83, 84, 85, 86, 87, 88, 89, 90, 91, 92, 93, 94, 95, 96, 97, 98, 99, 100, 101, 102, 103, 104, 105, 106, 107, 108, 109, 110, 111, 112, 113, 114, 115, 116, 117, 118, 119, 120, 121, 122, 123, 124, 125, 126, 127, 128, 129, 130, 131, 132, 133, 134, 135, 136, 137, 138, 139, 140, 141, 142, 143, 144, 145, 146, 147, 148, 149, 150, 151, 152, 153, 154, 155, 156, 157, 158, 159, 160, 161, 162, 163, 164, 165, 166, 167, 168, 169, 170, 171, 172, 173, 174, 175, 176, 177, 178, 179, 180, 181, 182, 183, 184, 185, 186, 187, 188, 189, 190],
      "AcquisitionTime": ["152840.600000", "152842.090000", "152843.580000", "152845.070000", "152846.560000", "152848.050000", "152849.540000", "152851.030000", "152852.520000", "152854.010000", "152855.500000", "152856.990000", "152858.480000", "152859.970000", "152901.460000", "152902.950000", "152904.440000", "152905.930000", "152907.420000", "152908.910000", "152910.400000", "152911.890000", "152913.380000", "152914.870000", "152916.360000", "152917.850000", "152919.340000", "152920.830000", "152922.320000", "152923.810000", "152925.300000", "152926.790000", "152928.280000", "152929.770000", "152931.260000", "152932.750000", "152934.240000", "152935.730000", "152937.220000", "152938.710000", "152940.200000", "152941.690000", "152943.180000", "152944.670000", "152946.160000", "152947.650000", "152949.140000", "152950.630000", "152952.120000", "152953.610000", "152955.100000", "152956.590000", "152958.080000", "152959.570000", "153001.060000", "153002.550000", "153004.040000", "153005.530000", "153007.020000", "153008.510000", "153010.000000", "153011.490000", "153012.980000", "153014.470000", "153015.960000", "153017.450000", "153018.940000", "153020.430000", "153021.920000", "153023.410000", "153024.900000", "153026.390000", "153027.880000", "153029.370000", "153030.860000", "153032.350000", "153033.840000", "153035.330000", "153036.820000", "153038.310000", "153039.800000", "153041.290000", "153042.780000", "153044.270000", "153045.760000", "153047.250000", "153048.740000", "153050.230000", "153051.720000", "153053.210000", "153054.700000", "153056.190000", "153057.680000", "153059.170000", "153100.660000", "153102.150000", "153103.640000", "153105.130000", "153106.620000", "153108.110000", "153109.600000", "153111.090000", "153112.580000", "153114.070000", "153115.560000", "153117.050000", "153118.540000", "153120.030000", "153121.520000", "153123.010000", "153124.500000", "153125.990000", "153127.480000", "153128.970000", "153130.460000", "153131.950000", "153133.440000", "153134.930000", "153136.420000", "153137.910000", "153139.400000", "153140.890000", "153142.380000", "153143.870000", "153145.360000", "153146.850000", "153148.340000", "153149.830000", "153151.320000", "153152.810000", "153154.300000", "153155.790000", "153157.280000", "153158.770000", "153200.260000", "153201.750000", "153203.240000", "153204.730000", "153206.220000", "153207.710000", "153209.200000", "153210.690000", "153212.180000", "153213.670000", "153215.160000", "153216.650000", "153218.140000", "153219.630000", "153221.120000", "153222.610000", "153224.100000", "153225.590000", "153227.080000", "153228.570000", "153230.060000", "153231.550000", "153233.040000", "153234.530000", "153236.020000", "153237.510000", "153239.000000", "153240.490000", "153241.980000", "153243.470000", "153244.960000", "153246.450000", "153247.940000", "153249.430000", "153250.920000", "153252.410000", "153253.900000", "153255.390000", "153256.880000", "153258.370000", "153259.860000", "153301.350000", "153302.840000", "153304.330000", "153305.820000", "153307.310000", "153308.800000", "153310.290000", "153311.780000", "153313.270000", "153314.760000", "153316.250000", "153317.740000", "153319.230000", "153320.720000", "153322.210000"],
      "ContentTime": ["153003.444000", "153003.448000", "153003.451000", "153003.455000", "153003.462000", "153003.465000", "153003.469000", "153003.475000", "153003.478000", "153003.481000", "153003.484000", "153003.487000", "153003.491000", "153003.494000", "153003.497000", "153003.500000", "153003.503000", "153003.507000", "153003.510000", "153003.513000", "153003.516000", "153003.520000", "153003.523000", "153003.526000", "153003.529000", "153003.533000", "153003.536000", "153003.539000", "153003.542000", "153003.545000", "153003.549000", "153023.420000", "153023.424000", "153023.437000", "153023.440000", "153023.443000", "153023.446000", "153023.450000", "153023.453000", "153023.467000", "153023.471000", "153023.474000", "153023.477000", "153023.481000", "153023.484000", "153023.487000", "153023.490000", "153023.493000", "153023.497000", "153023.500000", "153023.503000", "153043.420000", "153043.424000", "153043.427000", "153043.430000", "153043.439000", "153043.442000", "153043.445000", "153043.448000", "153043.451000", "153043.455000", "153043.458000", "153043.461000", "153043.464000", "153043.468000", "153043.471000", "153043.474000", "153043.477000", "153043.481000", "153043.484000", "153043.487000", "153103.420000", "153103.424000", "153103.427000", "153103.430000", "153103.433000", "153103.436000", "153103.440000", "153103.445000", "153103.449000", "153103.453000", "153103.457000", "153103.460000", "153103.465000", "153103.469000", "153103.472000", "153103.476000", "153103.479000", "153103.482000", "153103.485000", "153103.489000", "153143.420000", "153143.424000", "153143.427000", "153143.430000", "153143.433000", "153143.437000", "153143.440000", "153143.449000", "153143.452000", "153143.456000", "153143.459000", "153143.462000", "153143.465000", "153143.468000", "153143.472000", "153143.475000", "153143.478000", "153143.481000", "153143.485000", "153143.488000", "153143.491000", "153143.494000", "153143.497000", "153143.501000", "153143.504000", "153143.507000", "153143.510000", "153143.514000", "153143.517000", "153143.520000", "153143.523000", "153223.419000", "153223.423000", "153223.426000", "153223.429000", "153223.433000", "153223.436000", "153223.439000", "153223.442000", "153223.446000", "153223.449000", "153223.452000", "153223.456000", "153223.459000", "153223.462000", "153223.465000", "153223.469000", "153223.472000", "153223.475000", "153223.478000", "153223.491000", "153223.495000", "153223.498000", "153223.501000", "153223.504000", "153223.508000", "153223.511000", "153223.514000", "153303.420000", "153303.443000", "153303.446000", "153303.449000", "153303.453000", "153303.456000", "153303.459000", "153303.462000", "153303.465000", "153303.469000", "153303.472000", "153303.475000", "153303.479000", "153303.482000", "153303.485000", "153303.488000", "153303.491000", "153303.495000", "153303.498000", "153303.501000", "153303.504000", "153303.508000", "153303.511000", "153303.514000", "153303.517000", "153303.520000", "153303.524000", "153324.336000", "153324.339000", "153324.342000", "153324.346000", "153324.349000", "153324.352000", "153324.356000", "153324.359000", "153324.362000", "153324.366000", "153324.369000", "153324.372000", "153324.375000", "153324.379000"],
      "InstanceCreationTime": ["153003.444000", "153003.448000", "153003.451000", "153003.455000", "153003.462000", "153003.465000", "153003.469000", "153003.475000", "153003.478000", "153003.481000", "153003.484000", "153003.487000", "153003.491000", "153003.494000", "153003.497000", "153003.500000", "153003.503000", "153003.507000", "153003.510000", "153003.513000", "153003.516000", "153003.520000", "153003.523000", "153003.526000", "153003.529000", "153003.533000", "153003.536000", "153003.539000", "153003.542000", "153003.545000", "153003.549000", "153023.420000", "153023.424000", "153023.437000", "153023.440000", "153023.443000", "153023.446000", "153023.450000", "153023.453000", "153023.467000", "153023.471000", "153023.474000", "153023.477000", "153023.481000", "153023.484000", "153023.487000", "153023.490000", "153023.493000", "153023.497000", "153023.500000", "153023.503000", "153043.420000", "153043.424000", "153043.427000", "153043.430000", "153043.439000", "153043.442000", "153043.445000", "153043.448000", "153043.451000", "153043.455000", "153043.458000", "153043.461000", "153043.464000", "153043.468000", "153043.471000", "153043.474000", "153043.477000", "153043.481000", "153043.484000", "153043.487000", "153103.420000", "153103.424000", "153103.427000", "153103.430000", "153103.433000", "153103.436000", "153103.440000", "153103.445000", "153103.449000", "153103.453000", "153103.457000", "153103.460000", "153103.465000", "153103.469000", "153103.472000", "153103.476000", "153103.479000", "153103.482000", "153103.485000", "153103.489000", "153143.420000", "153143.424000", "153143.427000", "153143.430000", "153143.433000", "153143.437000", "153143.440000", "153143.449000", "153143.452000", "153143.456000", "153143.459000", "153143.462000", "153143.465000", "153143.468000", "153143.472000", "153143.475000", "153143.478000", "153143.481000", "153143.485000", "153143.488000", "153143.491000", "153143.494000", "153143.497000", "153143.501000", "153143.504000", "153143.507000", "153143.510000", "153143.514000", "153143.517000", "153143.520000", "153143.523000", "153223.419000", "153223.423000", "153223.426000", "153223.429000", "153223.433000", "153223.436000", "153223.439000", "153223.442000", "153223.446000", "153223.449000", "153223.452000", "153223.456000", "153223.459000", "153223.462000", "153223.465000", "153223.469000", "153223.472000", "153223.475000", "153223.478000", "153223.491000", "153223.495000", "153223.498000", "153223.501000", "153223.504000", "153223.508000", "153223.511000", "153223.514000", "153303.420000", "153303.443000", "153303.446000", "153303.449000", "153303.453000", "153303.456000", "153303.459000", "153303.462000", "153303.465000", "153303.469000", "153303.472000", "153303.475000", "153303.479000", "153303.482000", "153303.485000", "153303.488000", "153303.491000", "153303.495000", "153303.498000", "153303.501000", "153303.504000", "153303.508000", "153303.511000", "153303.514000", "153303.517000", "153303.520000", "153303.524000", "153324.336000", "153324.339000", "153324.342000", "153324.346000", "153324.349000", "153324.352000", "153324.356000", "153324.359000", "153324.362000", "153324.366000", "153324.369000", "153324.372000", "153324.375000", "153324.379000"],
      "InstanceNumber": [1, 2, 3, 4, 5, 6, 7, 8, 9, 10, 11, 12, 13, 14, 15, 16, 17, 18, 19, 20, 21, 22, 23, 24, 25, 26, 27, 28, 29, 30, 31, 32, 33, 34, 35, 36, 37, 38, 39, 40, 41, 42, 43, 44, 45, 46, 47, 48, 49, 50, 51, 52, 53, 54, 55, 56, 57, 58, 59, 60, 61, 62, 63, 64, 65, 66, 67, 68, 69, 70, 71, 72, 73, 74, 75, 76, 77, 78, 79, 80, 81, 82, 83, 84, 85, 86, 87, 88, 89, 90, 91, 92, 93, 94, 95, 96, 97, 98, 99, 100, 101, 102, 103, 104, 105, 106, 107, 108, 109, 110, 111, 112, 113, 114, 115, 116, 117, 118, 119, 120, 121, 122, 123, 124, 125, 126, 127, 128, 129, 130, 131, 132, 133, 134, 135, 136, 137, 138, 139, 140, 141, 142, 143, 144, 145, 146, 147, 148, 149, 150, 151, 152, 153, 154, 155, 156, 157, 158, 159, 160, 161, 162, 163, 164, 165, 166, 167, 168, 169, 170, 171, 172, 173, 174, 175, 176, 177, 178, 179, 180, 181, 182, 183, 184, 185, 186, 187, 188, 189, 190],
      "LargestImagePixelValue": [45049, 43188, 42776, 42168, 41836, 42108, 41960, 42217, 41290, 41145, 41240, 41272, 41541, 41332, 40983, 41303, 41361, 41251, 41015, 41081, 40921, 40965, 41261, 41204, 41222, 40249, 41102, 40970, 41105, 41242, 40783, 41274, 40712, 41146, 40504, 40666, 40664, 40327, 40651, 40150, 40399, 40674, 40249, 40329, 40538, 40369, 41510, 40586, 40146, 40501, 39923, 40987, 40645, 40682, 40446, 40866, 40196, 40835, 40298, 39928, 40765, 40770, 40097, 40401, 40048, 40683, 40047, 39968, 40431, 40373, 40347, 40596, 39974, 40175, 39875, 40077, 39993, 40348, 40226, 39847, 41777, 41098, 40342, 42166, 42246, 41525, 41837, 41459, 42023, 41920, 41640, 40819, 40958, 41167, 41345, 41146, 41067, 40710, 41159, 41003, 42144, 42151, 43458, 42047, 41395, 41339, 41184, 40558, 41197, 41278, 41329, 41298, 41356, 41874, 41660, 41073, 41347, 40520, 40868, 40320, 40460, 40124, 41362, 41541, 41443, 41398, 41019, 40555, 40443, 41109, 40776, 40663, 40889, 40600, 41324, 40728, 40917, 41005, 40833, 40640, 41255, 40869, 40589, 40911, 40422, 40801, 40811, 40920, 41254, 40710, 40990, 40894, 40869, 40475, 41551, 40817, 40485, 41126, 40411, 41099, 40796, 41545, 41294, 41776, 41277, 41114, 41614, 42083, 41614, 41905, 42155, 42262, 41802, 42067, 41941, 42257, 41918, 41837, 41854, 41269, 41480, 41472, 42432, 42484, 41843, 41877, 42311, 41619, 42206, 41611],
      "WindowCenter": [10410.0, 10351.0, 10329.0, 10318.0, 10316.0, 10340.0, 10353.0, 10365.0, 10368.0, 10369.0, 10358.0, 10348.0, 10343.0, 10337.0, 10328.0, 10329.0, 10292.0, 10288.0, 10281.0, 10279.0, 10294.0, 10297.0, 10319.0, 10320.0, 10321.0, 10325.0, 10338.0, 10338.0, 10329.0, 10334.0, 10332.0, 10336.0, 10338.0, 10327.0, 10307.0, 10292.0, 10291.0, 10299.0, 10306.0, 10310.0, 10309.0, 10315.0, 10301.0, 10293.0, 10298.0, 10308.0, 10322.0, 10323.0, 10310.0, 10317.0, 10312.0, 10310.0, 10292.0, 10277.0, 10269.0, 10273.0, 10275.0, 10272.0, 10262.0, 10262.0, 10248.0, 10265.0, 10254.0, 10263.0, 10262.0, 10277.0, 10281.0, 10295.0, 10295.0, 10288.0, 10284.0, 10283.0, 10287.0, 10286.0, 10289.0, 10279.0, 10280.0, 10276.0, 10280.0, 10288.0, 10318.0, 10312.0, 10308.0, 10324.0, 10330.0, 10319.0, 10309.0, 10296.0, 10290.0, 10277.0, 10291.0, 10297.0, 10297.0, 10280.0, 10281.0, 10272.0, 10259.0, 10248.0, 10296.0, 10330.0, 10357.0, 10328.0, 10339.0, 10342.0, 10312.0, 10280.0, 10225.0, 10191.0, 10217.0, 10241.0, 10262.0, 10272.0, 10285.0, 10299.0, 10301.0, 10297.0, 10314.0, 10323.0, 10337.0, 10341.0, 10337.0, 10324.0, 10310.0, 10275.0, 10264.0, 10267.0, 10278.0, 10297.0, 10305.0, 10321.0, 10315.0, 10306.0, 10302.0, 10304.0, 10299.0, 10301.0, 10310.0, 10303.0, 10281.0, 10264.0, 10259.0, 10257.0, 10266.0, 10284.0, 10281.0, 10282.0, 10271.0, 10270.0, 10276.0, 10287.0, 10295.0, 10293.0, 10294.0, 10295.0, 10298.0, 10293.0, 10278.0, 10304.0, 10304.0, 10310.0, 10289.0, 10282.0, 10274.0, 10285.0, 10290.0, 10295.0, 10290.0, 10286.0, 10272.0, 10263.0, 10266.0, 10274.0, 10292.0, 10300.0, 10312.0, 10311.0, 10297.0, 10289.0, 10293.0, 10297.0, 10298.0, 10289.0, 10304.0, 10308.0, 10289.0, 10264.0, 10246.0, 10238.0, 10241.0, 10253.0],
      "WindowWidth": [22531.0, 22358.0, 22284.0, 22246.0, 22237.0, 22285.0, 22316.0, 22337.0, 22343.0, 22346.0, 22323.0, 22301.0, 22284.0, 22270.0, 22248.0, 22252.0, 22170.0, 22160.0, 22147.0, 22141.0, 22175.0, 22183.0, 22232.0, 22235.0, 22238.0, 22251.0, 22275.0, 22278.0, 22254.0, 22265.0, 22261.0, 22270.0, 22278.0, 22249.0, 22209.0, 22172.0, 22170.0, 22190.0, 22205.0, 22219.0, 22213.0, 22225.0, 22194.0, 22175.0, 22186.0, 22211.0, 22240.0, 22240.0, 22211.0, 22227.0, 22218.0, 22212.0, 22172.0, 22135.0, 22118.0, 22124.0, 22133.0, 22122.0, 22104.0, 22102.0, 22068.0, 22109.0, 22086.0, 22108.0, 22107.0, 22137.0, 22151.0, 22182.0, 22180.0, 22166.0, 22158.0, 22152.0, 22161.0, 22158.0, 22168.0, 22144.0, 22146.0, 22136.0, 22148.0, 22165.0, 22229.0, 22215.0, 22212.0, 22241.0, 22256.0, 22230.0, 22206.0, 22184.0, 22162.0, 22133.0, 22162.0, 22179.0, 22177.0, 22140.0, 22142.0, 22119.0, 22095.0, 22068.0, 22176.0, 22258.0, 22321.0, 22253.0, 22272.0, 22282.0, 22210.0, 22135.0, 22010.0, 21934.0, 21990.0, 22048.0, 22097.0, 22121.0, 22149.0, 22181.0, 22184.0, 22176.0, 22210.0, 22236.0, 22265.0, 22281.0, 22273.0, 22241.0, 22206.0, 22128.0, 22102.0, 22108.0, 22136.0, 22182.0, 22199.0, 22235.0, 22220.0, 22197.0, 22186.0, 22192.0, 22177.0, 22185.0, 22208.0, 22194.0, 22144.0, 22105.0, 22089.0, 22087.0, 22106.0, 22145.0, 22140.0, 22138.0, 22118.0, 22120.0, 22131.0, 22156.0, 22175.0, 22169.0, 22171.0, 22174.0, 22177.0, 22169.0, 22137.0, 22191.0, 22196.0, 22207.0, 22162.0, 22141.0, 22126.0, 22148.0, 22162.0, 22176.0, 22161.0, 22147.0, 22120.0, 22100.0, 22102.0, 22123.0, 22165.0, 22184.0, 22211.0, 22207.0, 22181.0, 22162.0, 22169.0, 22180.0, 22183.0, 22161.0, 22188.0, 22197.0, 22158.0, 22100.0, 22059.0, 22044.0, 22049.0, 22076.0]
    },
    "slices": {}
  }
}