{
  "AcquisitionMatrixPE": 104,
  "AcquisitionNumber": 1,
  "AcquisitionTime": "15:35:5.717500",
  "BandwidthPerPixelPhaseEncode": 17.17,
  "BaseResolution": 104,
  "BodyPartExamined": "BRAIN",
  "CoilString": "HC1-7;NC1_2",
  "ConsistencyInfo": "N4_VE11C_LATEST_20160120",
  "ConversionSoftware": "dcm2niix",
  "ConversionSoftwareVersion": "v1.0.20190902",
  "DerivedVendorReportedEchoSpacing": 0.000560011,
  "DeviceSerialNumber": "167006",
  "DwellTime": 2.1e-06,
  "EchoTime": 0.037,
  "EchoTrainLength": 104,
  "EffectiveEchoSpacing": 0.000560011,
  "FlipAngle": 52,
  "ImageComments": "Unaliased_MB4_PE3_LB",
  "ImageOrientationPatientDICOM": [0.999478, -0.0317855, -0.0057337, 0.0284417, 0.950275, -0.310109],
  "ImageType": [
    "ORIGINAL",
    "PRIMARY",
    "M",
    "MB",
    "ND",
    "MOSAIC"
],
  "ImagingFrequency": 123.259,
  "InPlanePhaseEncodingDirectionDICOM": "COL",
  "InstitutionAddress": "Chemin_Queen-Mary_4565_Montreal_District_CA_H3W_1W5",
  "InstitutionName": "IUGM",
  "InstitutionalDepartmentName": "Department",
  "MRAcquisitionType": "2D",
  "MagneticFieldStrength": 3,
  "Manufacturer": "Siemens",
  "ManufacturersModelName": "Prisma_fit",
  "Modality": "MR",
  "MultibandAccelerationFactor": 4,
  "PartialFourier": 1,
  "PatientPosition": "HFS",
  "PercentPhaseFOV": 100,
  "PhaseEncodingDirection": "j",
  "PhaseEncodingSteps": 104,
  "PhaseResolution": 1,
  "PixelBandwidth": 2290,
  "ProcedureStepDescription": "memory_things",
  "ProtocolName": "func_task-things_run-4",
  "PulseSequenceDetails": "%CustomerSeq%_cmrr_mbep2d_bold",
  "ReceiveCoilActiveElements": "HC1-7;NC1,2",
  "ReceiveCoilName": "HeadNeck_64",
  "ReconMatrixPE": 104,
  "RepetitionTime": 1.49,
  "SAR": 0.0427411,
  "ScanOptions": "FS",
  "ScanningSequence": "EP",
  "SequenceName": "epfid2d1_104",
  "SequenceVariant": "SK_SS",
  "SeriesDescription": "func_task-things_run-4",
  "SeriesNumber": 19,
  "ShimSetting": [625, -7258, -8829, 582, 12, -234, 0, -27],
  "SliceThickness": 2,
  "SliceTiming": [0, 0.785, 0.0975, 0.8825, 0.195, 0.98, 0.295, 1.0775, 0.3925, 1.175, 0.49, 1.2725, 0.5875, 1.3725, 0.685, 0, 0.785, 0.0975, 0.8825, 0.195, 0.98, 0.295, 1.0775, 0.3925, 1.175, 0.49, 1.2725, 0.5875, 1.3725, 0.685, 0, 0.785, 0.0975, 0.8825, 0.195, 0.98, 0.295, 1.0775, 0.3925, 1.175, 0.49, 1.2725, 0.5875, 1.3725, 0.685, 0, 0.785, 0.0975, 0.8825, 0.195, 0.98, 0.295, 1.0775, 0.3925, 1.175, 0.49, 1.2725, 0.5875, 1.3725, 0.685],
  "SoftwareVersions": "syngo_MR_E11",
  "SpacingBetweenSlices": 2,
  "StationName": "MRC35049",
  "TaskName": "things",
  "TotalReadoutTime": 0.0576811,
  "TxRefAmp": 240.089,
  "WipMemBlock": "df0986bb-7942-4b12-9c77-558509cd99fd||Sequence: R016 ve11c/master r/e634e98; Dec 19 2017 11:00:25 by eja",
  "dcmmeta_affine": [
    [-1.998956561088562, 0.05688345059752464, -0.030611127614974976, 104.4881362915039],
    [0.06357096135616302, 1.9005508422851562, -0.6195687055587769, -69.29228210449219],
    [-0.011467399075627327, 0.6202184557914734, 1.9013673067092896, -63.357635498046875],
    [0.0, 0.0, 0.0, 1.0]
],
  "dcmmeta_reorient_transform": [
    [0.0, -1.0, 0.0, 103.0],
    [1.0, 0.0, 0.0, 0.0],
    [0.0, 0.0, 1.0, 0.0],
    [0.0, 0.0, 0.0, 1.0]
],
  "dcmmeta_shape": [104, 104, 60, 190],
  "dcmmeta_slice_dim": 2,
  "dcmmeta_version": 0.6,
  "global": {
    "const": {
      "AcquisitionMatrix": [104, 0, 0, 104],
      "AngioFlag": "N",
      "BitsAllocated": 16,
      "BitsStored": 16,
      "BodyPartExamined": "BRAIN",
      "Columns": 832,
      "EchoNumbers": 1,
      "EchoTime": 37.0,
      "EchoTrainLength": 104,
      "FlipAngle": 52.0,
      "HighBit": 15,
      "ImageOrientationPatient": [0.99947826790612, -0.0317854789964, -0.0057336993608, 0.02844172461559, 0.95027539923515, -0.3101092289974],
      "ImagePositionPatient": [-858.6728885205, -795.12511144141, 230.45851671145],
      "ImageType": [
        "ORIGINAL",
        "PRIMARY",
        "M",
        "MB",
        "ND",
        "MOSAIC"
],
      "ImagedNucleus": "1H",
      "ImagingFrequency": 123.258885,
      "InPlanePhaseEncodingDirection": "COL",
      "MRAcquisitionType": "2D",
      "MagneticFieldStrength": 3.0,
      "Manufacturer": "SIEMENS",
      "ManufacturerModelName": "Prisma_fit",
      "Modality": "MR",
      "NumberOfAverages": 1.0,
      "NumberOfPhaseEncodingSteps": 104,
      "PercentPhaseFieldOfView": 100.0,
      "PercentSampling": 100.0,
      "PerformedProcedureStepStartTime": "145027.458000",
      "PhotometricInterpretation": "MONOCHROME2",
      "PixelBandwidth": 2290.0,
      "PixelRepresentation": 0,
      "PixelSpacing": [2.0, 2.0],
      "ProtocolName": "func_task-things_run-4",
      "RepetitionTime": 1490.0,
      "Rows": 832,
      "SAR": 0.04274106902772,
      "SamplesPerPixel": 1,
      "ScanOptions": "FS",
      "ScanningSequence": "EP",
      "SequenceName": "epfid2d1_104",
      "SequenceVariant": [
        "SK",
        "SS"
],
      "SeriesDescription": "func_task-things_run-4",
      "SeriesNumber": 19,
      "SeriesTime": "153635.184000",
      "SliceLocation": -40.366653055695,
      "SliceThickness": 2.0,
      "SmallestImagePixelValue": 0,
      "SoftwareVersions": "syngo MR E11",
      "SpacingBetweenSlices": 2.0000000330041,
      "SpecificCharacterSet": "ISO_IR 100",
      "StudyID": "1",
      "StudyTime": "145027.355000",
      "TransmitCoilName": "Body",
      "VariableFlipAngleFlag": "N",
      "WindowCenterWidthExplanation": "Algo1",
      "dBdt": 0.0},
    "slices": {}
  },
  "time": {
    "samples": {
      "AcquisitionNumber": [1, 2, 3, 4, 5, 6, 7, 8, 9, 10, 11, 12, 13, 14, 15, 16, 17, 18, 19, 20, 21, 22, 23, 24, 25, 26, 27, 28, 29, 30, 31, 32, 33, 34, 35, 36, 37, 38, 39, 40, 41, 42, 43, 44, 45, 46, 47, 48, 49, 50, 51, 52, 53, 54, 55, 56, 57, 58, 59, 60, 61, 62, 63, 64, 65, 66, 67, 68, 69, 70, 71, 72, 73, 74, 75, 76, 77, 78, 79, 80, 81, 82, 83, 84, 85, 86, 87, 88, 89, 90, 91, 92, 93, 94, 95, 96, 97, 98, 99, 100, 101, 102, 103, 104, 105, 106, 107, 108, 109, 110, 111, 112, 113, 114, 115, 116, 117, 118, 119, 120, 121, 122, 123, 124, 125, 126, 127, 128, 129, 130, 131, 132, 133, 134, 135, 136, 137, 138, 139, 140, 141, 142, 143, 144, 145, 146, 147, 148, 149, 150, 151, 152, 153, 154, 155, 156, 157, 158, 159, 160, 161, 162, 163, 164, 165, 166, 167, 168, 169, 170, 171, 172, 173, 174, 175, 176, 177, 178, 179, 180, 181, 182, 183, 184, 185, 186, 187, 188, 189, 190],
      "AcquisitionTime": ["153505.717500", "153507.207500", "153508.697500", "153510.187500", "153511.677500", "153513.167500", "153514.657500", "153516.147500", "153517.637500", "153519.127500", "153520.617500", "153522.107500", "153523.597500", "153525.087500", "153526.577500", "153528.067500", "153529.557500", "153531.047500", "153532.537500", "153534.027500", "153535.517500", "153537.007500", "153538.497500", "153539.987500", "153541.477500", "153542.967500", "153544.457500", "153545.947500", "153547.437500", "153548.927500", "153550.417500", "153551.907500", "153553.397500", "153554.887500", "153556.377500", "153557.867500", "153559.357500", "153600.847500", "153602.337500", "153603.827500", "153605.317500", "153606.807500", "153608.297500", "153609.787500", "153611.277500", "153612.767500", "153614.257500", "153615.747500", "153617.237500", "153618.727500", "153620.217500", "153621.707500", "153623.197500", "153624.687500", "153626.177500", "153627.667500", "153629.157500", "153630.647500", "153632.137500", "153633.627500", "153635.117500", "153636.607500", "153638.097500", "153639.587500", "153641.077500", "153642.567500", "153644.057500", "153645.547500", "153647.037500", "153648.527500", "153650.017500", "153651.507500", "153652.997500", "153654.487500", "153655.977500", "153657.467500", "153658.957500", "153700.447500", "153701.937500", "153703.427500", "153704.917500", "153706.407500", "153707.897500", "153709.387500", "153710.877500", "153712.367500", "153713.857500", "153715.347500", "153716.837500", "153718.327500", "153719.817500", "153721.307500", "153722.797500", "153724.287500", "153725.777500", "153727.267500", "153728.757500", "153730.247500", "153731.737500", "153733.227500", "153734.717500", "153736.207500", "153737.697500", "153739.187500", "153740.677500", "153742.167500", "153743.657500", "153745.147500", "153746.637500", "153748.127500", "153749.617500", "153751.107500", "153752.597500", "153754.087500", "153755.577500", "153757.067500", "153758.557500", "153800.047500", "153801.537500", "153803.027500", "153804.517500", "153806.007500", "153807.497500", "153808.987500", "153810.477500", "153811.967500", "153813.457500", "153814.947500", "153816.437500", "153817.927500", "153819.417500", "153820.907500", "153822.397500", "153823.887500", "153825.377500", "153826.867500", "153828.357500", "153829.847500", "153831.337500", "153832.827500", "153834.317500", "153835.807500", "153837.297500", "153838.787500", "153840.277500", "153841.767500", "153843.257500", "153844.747500", "153846.237500", "153847.727500", "153849.217500", "153850.707500", "153852.197500", "153853.687500", "153855.177500", "153856.667500", "153858.157500", "153859.647500", "153901.137500", "153902.627500", "153904.117500", "153905.607500", "153907.097500", "153908.587500", "153910.077500", "153911.567500", "153913.057500", "153914.547500", "153916.037500", "153917.527500", "153919.017500", "153920.507500", "153921.997500", "153923.487500", "153924.977500", "153926.467500", "153927.957500", "153929.447500", "153930.937500", "153932.427500", "153933.917500", "153935.407500", "153936.897500", "153938.387500", "153939.877500", "153941.367500", "153942.857500", "153944.347500", "153945.837500", "153947.327500"],
      "ContentTime": ["153635.187000", "153635.191000", "153635.194000", "153635.198000", "153635.201000", "153635.204000", "153635.207000", "153635.211000", "153635.214000", "153635.217000", "153635.221000", "153635.224000", "153635.229000", "153635.234000", "153635.238000", "153635.241000", "153635.245000", "153635.267000", "153635.270000", "153635.273000", "153635.276000", "153635.280000", "153635.283000", "153635.286000", "153635.289000", "153635.292000", "153635.296000", "153635.299000", "153635.302000", "153635.305000", "153635.309000", "153635.312000", "153635.315000", "153635.318000", "153655.152000", "153655.156000", "153655.159000", "153655.162000", "153655.165000", "153655.182000", "153655.185000", "153655.189000", "153655.192000", "153655.195000", "153655.198000", "153655.202000", "153655.205000", "153655.208000", "153655.211000", "153655.215000", "153655.218000", "153655.225000", "153655.228000", "153655.231000", "153655.234000", "153715.152000", "153715.156000", "153715.159000", "153715.162000", "153715.166000", "153715.169000", "153715.172000", "153715.175000", "153715.179000", "153715.182000", "153715.185000", "153715.188000", "153715.192000", "153715.195000", "153715.198000", "153715.201000", "153715.204000", "153715.208000", "153715.211000", "153715.214000", "153735.152000", "153735.156000", "153735.159000", "153735.162000", "153735.166000", "153735.169000", "153735.173000", "153735.176000", "153735.179000", "153735.182000", "153735.186000", "153735.189000", "153735.192000", "153735.195000", "153735.199000", "153735.202000", "153735.205000", "153735.208000", "153735.212000", "153735.215000", "153815.152000", "153815.156000", "153815.159000", "153815.162000", "153815.166000", "153815.169000", "153815.172000", "153815.175000", "153815.179000", "153815.182000", "153815.185000", "153815.188000", "153815.192000", "153815.195000", "153815.198000", "153815.202000", "153815.205000", "153815.208000", "153815.211000", "153815.215000", "153815.218000", "153815.221000", "153815.224000", "153815.228000", "153815.231000", "153815.234000", "153815.237000", "153815.241000", "153815.244000", "153815.247000", "153815.250000", "153855.152000", "153855.156000", "153855.159000", "153855.162000", "153855.166000", "153855.169000", "153855.172000", "153855.176000", "153855.179000", "153855.182000", "153855.185000", "153855.189000", "153855.192000", "153855.195000", "153855.212000", "153855.215000", "153855.219000", "153855.222000", "153855.225000", "153855.228000", "153855.231000", "153855.235000", "153855.238000", "153855.241000", "153855.244000", "153855.248000", "153855.251000", "153935.152000", "153935.156000", "153935.159000", "153935.162000", "153935.166000", "153935.169000", "153935.172000", "153935.176000", "153935.179000", "153935.182000", "153935.185000", "153935.189000", "153935.192000", "153935.195000", "153935.198000", "153935.202000", "153935.205000", "153935.208000", "153935.211000", "153935.215000", "153935.218000", "153935.221000", "153935.224000", "153935.228000", "153935.231000", "153935.234000", "153935.237000", "153949.896000", "153949.899000", "153949.902000", "153949.906000", "153949.909000", "153949.912000", "153949.916000", "153949.919000", "153949.922000", "153949.926000"],
      "InstanceCreationTime": ["153635.187000", "153635.191000", "153635.194000", "153635.198000", "153635.201000", "153635.204000", "153635.207000", "153635.211000", "153635.214000", "153635.217000", "153635.221000", "153635.224000", "153635.229000", "153635.234000", "153635.238000", "153635.241000", "153635.245000", "153635.267000", "153635.270000", "153635.273000", "153635.276000", "153635.280000", "153635.283000", "153635.286000", "153635.289000", "153635.292000", "153635.296000", "153635.299000", "153635.302000", "153635.305000", "153635.309000", "153635.312000", "153635.315000", "153635.318000", "153655.152000", "153655.156000", "153655.159000", "153655.162000", "153655.165000", "153655.182000", "153655.185000", "153655.189000", "153655.192000", "153655.195000", "153655.198000", "153655.202000", "153655.205000", "153655.208000", "153655.211000", "153655.215000", "153655.218000", "153655.225000", "153655.228000", "153655.231000", "153655.234000", "153715.152000", "153715.156000", "153715.159000", "153715.162000", "153715.166000", "153715.169000", "153715.172000", "153715.175000", "153715.179000", "153715.182000", "153715.185000", "153715.188000", "153715.192000", "153715.195000", "153715.198000", "153715.201000", "153715.204000", "153715.208000", "153715.211000", "153715.214000", "153735.152000", "153735.156000", "153735.159000", "153735.162000", "153735.166000", "153735.169000", "153735.173000", "153735.176000", "153735.179000", "153735.182000", "153735.186000", "153735.189000", "153735.192000", "153735.195000", "153735.199000", "153735.202000", "153735.205000", "153735.208000", "153735.212000", "153735.215000", "153815.152000", "153815.156000", "153815.159000", "153815.162000", "153815.166000", "153815.169000", "153815.172000", "153815.175000", "153815.179000", "153815.182000", "153815.185000", "153815.188000", "153815.192000", "153815.195000", "153815.198000", "153815.202000", "153815.205000", "153815.208000", "153815.211000", "153815.215000", "153815.218000", "153815.221000", "153815.224000", "153815.228000", "153815.231000", "153815.234000", "153815.237000", "153815.241000", "153815.244000", "153815.247000", "153815.250000", "153855.152000", "153855.156000", "153855.159000", "153855.162000", "153855.166000", "153855.169000", "153855.172000", "153855.176000", "153855.179000", "153855.182000", "153855.185000", "153855.189000", "153855.192000", "153855.195000", "153855.212000", "153855.215000", "153855.219000", "153855.222000", "153855.225000", "153855.228000", "153855.231000", "153855.235000", "153855.238000", "153855.241000", "153855.244000", "153855.248000", "153855.251000", "153935.152000", "153935.156000", "153935.159000", "153935.162000", "153935.166000", "153935.169000", "153935.172000", "153935.176000", "153935.179000", "153935.182000", "153935.185000", "153935.189000", "153935.192000", "153935.195000", "153935.198000", "153935.202000", "153935.205000", "153935.208000", "153935.211000", "153935.215000", "153935.218000", "153935.221000", "153935.224000", "153935.228000", "153935.231000", "153935.234000", "153935.237000", "153949.896000", "153949.899000", "153949.902000", "153949.906000", "153949.909000", "153949.912000", "153949.916000", "153949.919000", "153949.922000", "153949.926000"],
      "InstanceNumber": [1, 2, 3, 4, 5, 6, 7, 8, 9, 10, 11, 12, 13, 14, 15, 16, 17, 18, 19, 20, 21, 22, 23, 24, 25, 26, 27, 28, 29, 30, 31, 32, 33, 34, 35, 36, 37, 38, 39, 40, 41, 42, 43, 44, 45, 46, 47, 48, 49, 50, 51, 52, 53, 54, 55, 56, 57, 58, 59, 60, 61, 62, 63, 64, 65, 66, 67, 68, 69, 70, 71, 72, 73, 74, 75, 76, 77, 78, 79, 80, 81, 82, 83, 84, 85, 86, 87, 88, 89, 90, 91, 92, 93, 94, 95, 96, 97, 98, 99, 100, 101, 102, 103, 104, 105, 106, 107, 108, 109, 110, 111, 112, 113, 114, 115, 116, 117, 118, 119, 120, 121, 122, 123, 124, 125, 126, 127, 128, 129, 130, 131, 132, 133, 134, 135, 136, 137, 138, 139, 140, 141, 142, 143, 144, 145, 146, 147, 148, 149, 150, 151, 152, 153, 154, 155, 156, 157, 158, 159, 160, 161, 162, 163, 164, 165, 166, 167, 168, 169, 170, 171, 172, 173, 174, 175, 176, 177, 178, 179, 180, 181, 182, 183, 184, 185, 186, 187, 188, 189, 190],
      "LargestImagePixelValue": [45589, 44105, 43458, 43722, 42979, 43373, 42865, 42427, 42753, 42575, 42487, 42981, 42617, 42498, 43230, 42998, 42700, 42586, 42031, 42678, 42773, 42706, 42679, 42612, 42915, 42151, 43184, 42624, 42547, 42794, 42641, 43238, 42475, 42433, 42669, 42526, 42253, 42098, 41912, 42129, 42194, 42398, 42133, 42385, 42119, 42198, 42146, 42455, 42569, 42505, 42482, 42648, 42625, 42229, 42314, 42326, 42436, 42255, 42536, 43063, 42731, 42219, 41985, 42502, 42323, 42631, 42814, 42580, 42496, 42463, 42478, 42481, 41802, 42170, 42442, 42370, 42479, 42602, 42697, 42674, 42329, 42472, 42175, 41815, 42866, 42358, 42439, 42590, 42733, 42639, 42697, 42423, 42345, 42399, 42350, 42267, 42163, 41703, 42913, 42769, 42803, 42460, 42594, 42982, 42127, 42396, 42411, 42521, 42454, 42561, 42594, 42703, 42161, 42771, 42835, 42962, 42674, 42793, 42398, 43012, 42803, 42866, 42866, 42306, 42393, 42489, 42582, 43332, 41811, 40972, 41522, 41634, 41910, 41936, 41940, 42510, 42477, 42368, 42122, 42253, 42651, 42269, 42238, 42735, 42254, 41870, 41977, 41914, 41942, 42612, 42702, 42401, 42041, 42383, 42566, 42224, 42003, 41430, 41699, 42431, 41872, 42363, 42086, 42371, 42722, 42431, 41176, 42084, 41989, 42205, 41573, 41490, 41231, 42121, 41811, 41558, 41671, 41920, 41765, 41982, 41872, 41564, 41876, 41956, 41657, 41638, 42014, 42005, 42231, 41986],
      "WindowCenter": [10338.0, 10313.0, 10326.0, 10364.0, 10357.0, 10346.0, 10315.0, 10288.0, 10270.0, 10254.0, 10252.0, 10251.0, 10257.0, 10251.0, 10248.0, 10234.0, 10234.0, 10234.0, 10259.0, 10267.0, 10273.0, 10253.0, 10243.0, 10241.0, 10227.0, 10231.0, 10241.0, 10232.0, 10215.0, 10249.0, 10248.0, 10253.0, 10243.0, 10217.0, 10181.0, 10150.0, 10144.0, 10149.0, 10149.0, 10172.0, 10189.0, 10208.0, 10216.0, 10216.0, 10218.0, 10233.0, 10237.0, 10245.0, 10240.0, 10232.0, 10239.0, 10233.0, 10229.0, 10256.0, 10262.0, 10239.0, 10218.0, 10202.0, 10212.0, 10242.0, 10241.0, 10231.0, 10209.0, 10213.0, 10215.0, 10213.0, 10196.0, 10187.0, 10179.0, 10193.0, 10208.0, 10213.0, 10190.0, 10197.0, 10212.0, 10215.0, 10219.0, 10218.0, 10223.0, 10219.0, 10212.0, 10216.0, 10219.0, 10200.0, 10187.0, 10190.0, 10201.0, 10194.0, 10202.0, 10211.0, 10210.0, 10202.0, 10181.0, 10164.0, 10176.0, 10219.0, 10239.0, 10209.0, 10209.0, 10203.0, 10203.0, 10194.0, 10209.0, 10211.0, 10196.0, 10179.0, 10185.0, 10199.0, 10212.0, 10204.0, 10200.0, 10202.0, 10197.0, 10185.0, 10185.0, 10210.0, 10221.0, 10249.0, 10208.0, 10211.0, 10201.0, 10185.0, 10176.0, 10170.0, 10185.0, 10206.0, 10227.0, 10271.0, 10228.0, 10197.0, 10213.0, 10199.0, 10151.0, 10113.0, 10117.0, 10171.0, 10192.0, 10183.0, 10172.0, 10177.0, 10208.0, 10223.0, 10219.0, 10223.0, 10208.0, 10200.0, 10208.0, 10219.0, 10231.0, 10244.0, 10238.0, 10231.0, 10203.0, 10205.0, 10202.0, 10212.0, 10216.0, 10195.0, 10186.0, 10196.0, 10198.0, 10219.0, 10232.0, 10270.0, 10266.0, 10254.0, 10244.0, 10267.0, 10277.0, 10264.0, 10217.0, 10199.0, 10184.0, 10182.0, 10181.0, 10181.0, 10188.0, 10198.0, 10207.0, 10213.0, 10222.0, 10224.0, 10223.0, 10223.0, 10225.0, 10224.0, 10218.0, 10218.0, 10218.0, 10202.0],
      "WindowWidth": [22341.0, 22247.0, 22262.0, 22329.0, 22304.0, 22268.0, 22197.0, 22131.0, 22087.0, 22051.0, 22046.0, 22044.0, 22061.0, 22047.0, 22035.0, 22008.0, 22007.0, 22007.0, 22065.0, 22085.0, 22095.0, 22051.0, 22029.0, 22021.0, 21992.0, 22000.0, 22017.0, 22001.0, 21964.0, 22052.0, 22053.0, 22050.0, 22030.0, 21966.0, 21887.0, 21815.0, 21796.0, 21814.0, 21812.0, 21862.0, 21901.0, 21944.0, 21961.0, 21964.0, 21971.0, 22007.0, 22014.0, 22028.0, 22019.0, 21999.0, 22012.0, 21999.0, 21989.0, 22052.0, 22070.0, 22019.0, 21969.0, 21935.0, 21955.0, 22022.0, 22017.0, 21998.0, 21946.0, 21951.0, 21965.0, 21958.0, 21919.0, 21897.0, 21883.0, 21913.0, 21944.0, 21956.0, 21904.0, 21919.0, 21953.0, 21960.0, 21970.0, 21966.0, 21979.0, 21970.0, 21955.0, 21957.0, 21964.0, 21926.0, 21895.0, 21904.0, 21926.0, 21913.0, 21932.0, 21950.0, 21948.0, 21929.0, 21883.0, 21845.0, 21869.0, 21966.0, 22011.0, 21946.0, 21939.0, 21930.0, 21932.0, 21911.0, 21942.0, 21948.0, 21915.0, 21877.0, 21888.0, 21920.0, 21951.0, 21936.0, 21921.0, 21927.0, 21919.0, 21890.0, 21888.0, 21943.0, 21974.0, 22035.0, 21944.0, 21948.0, 21925.0, 21888.0, 21867.0, 21853.0, 21888.0, 21933.0, 21990.0, 22102.0, 22008.0, 21926.0, 21955.0, 21920.0, 21816.0, 21723.0, 21731.0, 21856.0, 21908.0, 21893.0, 21864.0, 21875.0, 21942.0, 21979.0, 21969.0, 21974.0, 21940.0, 21921.0, 21938.0, 21967.0, 21994.0, 22023.0, 22010.0, 21993.0, 21934.0, 21936.0, 21925.0, 21946.0, 21958.0, 21912.0, 21889.0, 21911.0, 21917.0, 21964.0, 22000.0, 22085.0, 22080.0, 22046.0, 22031.0, 22074.0, 22099.0, 22071.0, 21963.0, 21919.0, 21891.0, 21886.0, 21883.0, 21883.0, 21900.0, 21921.0, 21944.0, 21954.0, 21973.0, 21980.0, 21979.0, 21977.0, 21982.0, 21981.0, 21968.0, 21969.0, 21967.0, 21933.0]
    },
    "slices": {}
  }
}