{
  "AcquisitionMatrixPE": 104,
  "AcquisitionNumber": 1,
  "AcquisitionTime": "15:41:37.727500",
  "BandwidthPerPixelPhaseEncode": 17.17,
  "BaseResolution": 104,
  "BodyPartExamined": "BRAIN",
  "CoilString": "HC1-7;NC1_2",
  "ConsistencyInfo": "N4_VE11C_LATEST_20160120",
  "ConversionSoftware": "dcm2niix",
  "ConversionSoftwareVersion": "v1.0.20190902",
  "DerivedVendorReportedEchoSpacing": 0.000560011,
  "DeviceSerialNumber": "167006",
  "DwellTime": 2.1e-06,
  "EchoTime": 0.037,
  "EchoTrainLength": 104,
  "EffectiveEchoSpacing": 0.000560011,
  "FlipAngle": 52,
  "ImageComments": "Unaliased_MB4_PE3_LB",
  "ImageOrientationPatientDICOM": [0.999478, -0.0317855, -0.0057337, 0.0284417, 0.950275, -0.310109],
  "ImageType": [
    "ORIGINAL",
    "PRIMARY",
    "P",
    "MB",
    "ND",
    "MOSAIC"
],
  "ImagingFrequency": 123.259,
  "InPlanePhaseEncodingDirectionDICOM": "COL",
  "InstitutionAddress": "Chemin_Queen-Mary_4565_Montreal_District_CA_H3W_1W5",
  "InstitutionName": "IUGM",
  "InstitutionalDepartmentName": "Department",
  "MRAcquisitionType": "2D",
  "MagneticFieldStrength": 3,
  "Manufacturer": "Siemens",
  "ManufacturersModelName": "Prisma_fit",
  "Modality": "MR",
  "MultibandAccelerationFactor": 4,
  "PartialFourier": 1,
  "PatientPosition": "HFS",
  "PercentPhaseFOV": 100,
  "PhaseEncodingDirection": "j",
  "PhaseEncodingSteps": 104,
  "PhaseResolution": 1,
  "PixelBandwidth": 2290,
  "ProcedureStepDescription": "memory_things",
  "ProtocolName": "func_task-things_run-5",
  "PulseSequenceDetails": "%CustomerSeq%_cmrr_mbep2d_bold",
  "ReceiveCoilActiveElements": "HC1-7;NC1,2",
  "ReceiveCoilName": "HeadNeck_64",
  "ReconMatrixPE": 104,
  "RepetitionTime": 1.49,
  "SAR": 0.0427411,
  "ScanOptions": "FS",
  "ScanningSequence": "EP",
  "SequenceName": "epfid2d1_104",
  "SequenceVariant": "SK_SS",
  "SeriesDescription": "func_task-things_run-5",
  "SeriesNumber": 23,
  "ShimSetting": [625, -7258, -8829, 582, 12, -234, 0, -27],
  "SliceThickness": 2,
  "SliceTiming": [0, 0.785, 0.1, 0.8825, 0.1975, 0.98, 0.295, 1.08, 0.3925, 1.1775, 0.49, 1.275, 0.59, 1.3725, 0.6875, 0, 0.785, 0.1, 0.8825, 0.1975, 0.98, 0.295, 1.08, 0.3925, 1.1775, 0.49, 1.275, 0.59, 1.3725, 0.6875, 0, 0.785, 0.1, 0.8825, 0.1975, 0.98, 0.295, 1.08, 0.3925, 1.1775, 0.49, 1.275, 0.59, 1.3725, 0.6875, 0, 0.785, 0.1, 0.8825, 0.1975, 0.98, 0.295, 1.08, 0.3925, 1.1775, 0.49, 1.275, 0.59, 1.3725, 0.6875],
  "SoftwareVersions": "syngo_MR_E11",
  "SpacingBetweenSlices": 2,
  "StationName": "MRC35049",
  "TaskName": "things",
  "TotalReadoutTime": 0.0576811,
  "TxRefAmp": 240.089,
  "WipMemBlock": "f867fabf-6150-4408-9b5e-b797bff51f8c||Sequence: R016 ve11c/master r/e634e98; Dec 19 2017 11:00:25 by eja",
  "dcmmeta_affine": [
    [-1.998956561088562, 0.05688345059752464, -0.030611127614974976, 104.4881362915039],
    [0.06357096135616302, 1.9005508422851562, -0.6195687055587769, -69.29228210449219],
    [-0.011467399075627327, 0.6202184557914734, 1.9013673067092896, -63.357635498046875],
    [0.0, 0.0, 0.0, 1.0]
],
  "dcmmeta_reorient_transform": [
    [0.0, -1.0, 0.0, 103.0],
    [1.0, 0.0, 0.0, 0.0],
    [0.0, 0.0, 1.0, 0.0],
    [0.0, 0.0, 0.0, 1.0]
],
  "dcmmeta_shape": [104, 104, 60, 190],
  "dcmmeta_slice_dim": 2,
  "dcmmeta_version": 0.6,
  "global": {
    "const": {
      "AcquisitionMatrix": [104, 0, 0, 104],
      "AngioFlag": "N",
      "BitsAllocated": 16,
      "BitsStored": 16,
      "BodyPartExamined": "BRAIN",
      "Columns": 832,
      "EchoNumbers": 1,
      "EchoTime": 37.0,
      "EchoTrainLength": 104,
      "FlipAngle": 52.0,
      "HighBit": 15,
      "ImageOrientationPatient": [0.99947826790612, -0.0317854789964, -0.0057336993608, 0.02844172461559, 0.95027539923515, -0.3101092289974],
      "ImagePositionPatient": [-858.6728885205, -795.12511144141, 230.45851671145],
      "ImageType": [
        "ORIGINAL",
        "PRIMARY",
        "P",
        "MB",
        "ND",
        "MOSAIC"
],
      "ImagedNucleus": "1H",
      "ImagingFrequency": 123.25889,
      "InPlanePhaseEncodingDirection": "COL",
      "LargestImagePixelValue": 4095,
      "MRAcquisitionType": "2D",
      "MagneticFieldStrength": 3.0,
      "Manufacturer": "SIEMENS",
      "ManufacturerModelName": "Prisma_fit",
      "Modality": "MR",
      "NumberOfAverages": 1.0,
      "NumberOfPhaseEncodingSteps": 104,
      "PercentPhaseFieldOfView": 100.0,
      "PercentSampling": 100.0,
      "PerformedProcedureStepStartTime": "145027.458000",
      "PhotometricInterpretation": "MONOCHROME2",
      "PixelBandwidth": 2290.0,
      "PixelRepresentation": 0,
      "PixelSpacing": [2.0, 2.0],
      "ProtocolName": "func_task-things_run-5",
      "RepetitionTime": 1490.0,
      "RescaleIntercept": -4096.0,
      "RescaleSlope": 2.0,
      "RescaleType": "US",
      "Rows": 832,
      "SAR": 0.04274106902772,
      "SamplesPerPixel": 1,
      "ScanOptions": "FS",
      "ScanningSequence": "EP",
      "SequenceName": "epfid2d1_104",
      "SequenceVariant": [
        "SK",
        "SS"
],
      "SeriesDescription": "func_task-things_run-5",
      "SeriesNumber": 23,
      "SeriesTime": "154234.490000",
      "SliceLocation": -40.366653055695,
      "SliceThickness": 2.0,
      "SmallestImagePixelValue": 0,
      "SoftwareVersions": "syngo MR E11",
      "SpacingBetweenSlices": 2.0000000330041,
      "SpecificCharacterSet": "ISO_IR 100",
      "StudyID": "1",
      "StudyTime": "145027.355000",
      "TransmitCoilName": "Body",
      "VariableFlipAngleFlag": "N",
      "WindowCenterWidthExplanation": "Algo1",
      "dBdt": 0.0},
    "slices": {}
  },
  "time": {
    "samples": {
      "AcquisitionNumber": [1, 2, 3, 4, 5, 6, 7, 8, 9, 10, 11, 12, 13, 14, 15, 16, 17, 18, 19, 20, 21, 22, 23, 24, 25, 26, 27, 28, 29, 30, 31, 32, 33, 34, 35, 36, 37, 38, 39, 40, 41, 42, 43, 44, 45, 46, 47, 48, 49, 50, 51, 52, 53, 54, 55, 56, 57, 58, 59, 60, 61, 62, 63, 64, 65, 66, 67, 68, 69, 70, 71, 72, 73, 74, 75, 76, 77, 78, 79, 80, 81, 82, 83, 84, 85, 86, 87, 88, 89, 90, 91, 92, 93, 94, 95, 96, 97, 98, 99, 100, 101, 102, 103, 104, 105, 106, 107, 108, 109, 110, 111, 112, 113, 114, 115, 116, 117, 118, 119, 120, 121, 122, 123, 124, 125, 126, 127, 128, 129, 130, 131, 132, 133, 134, 135, 136, 137, 138, 139, 140, 141, 142, 143, 144, 145, 146, 147, 148, 149, 150, 151, 152, 153, 154, 155, 156, 157, 158, 159, 160, 161, 162, 163, 164, 165, 166, 167, 168, 169, 170, 171, 172, 173, 174, 175, 176, 177, 178, 179, 180, 181, 182, 183, 184, 185, 186, 187, 188, 189, 190],
      "AcquisitionTime": ["154137.727500", "154139.217500", "154140.707500", "154142.197500", "154143.687500", "154145.177500", "154146.667500", "154148.157500", "154149.647500", "154151.137500", "154152.627500", "154154.117500", "154155.607500", "154157.097500", "154158.587500", "154200.077500", "154201.567500", "154203.057500", "154204.547500", "154206.037500", "154207.527500", "154209.017500", "154210.507500", "154211.997500", "154213.487500", "154214.977500", "154216.467500", "154217.957500", "154219.447500", "154220.937500", "154222.427500", "154223.917500", "154225.407500", "154226.897500", "154228.387500", "154229.877500", "154231.367500", "154232.857500", "154234.347500", "154235.837500", "154237.327500", "154238.817500", "154240.307500", "154241.797500", "154243.287500", "154244.777500", "154246.267500", "154247.757500", "154249.247500", "154250.737500", "154252.227500", "154253.717500", "154255.207500", "154256.697500", "154258.187500", "154259.677500", "154301.167500", "154302.657500", "154304.147500", "154305.637500", "154307.127500", "154308.617500", "154310.107500", "154311.597500", "154313.087500", "154314.577500", "154316.067500", "154317.557500", "154319.047500", "154320.537500", "154322.027500", "154323.517500", "154325.007500", "154326.497500", "154327.987500", "154329.477500", "154330.967500", "154332.457500", "154333.947500", "154335.437500", "154336.927500", "154338.417500", "154339.907500", "154341.397500", "154342.887500", "154344.377500", "154345.867500", "154347.357500", "154348.847500", "154350.337500", "154351.827500", "154353.317500", "154354.807500", "154356.297500", "154357.787500", "154359.277500", "154400.767500", "154402.257500", "154403.747500", "154405.237500", "154406.727500", "154408.217500", "154409.707500", "154411.197500", "154412.687500", "154414.177500", "154415.667500", "154417.157500", "154418.647500", "154420.137500", "154421.627500", "154423.117500", "154424.607500", "154426.097500", "154427.587500", "154429.077500", "154430.567500", "154432.057500", "154433.547500", "154435.037500", "154436.527500", "154438.017500", "154439.507500", "154440.997500", "154442.487500", "154443.977500", "154445.467500", "154446.957500", "154448.447500", "154449.937500", "154451.427500", "154452.917500", "154454.407500", "154455.897500", "154457.387500", "154458.877500", "154500.367500", "154501.857500", "154503.347500", "154504.837500", "154506.327500", "154507.817500", "154509.307500", "154510.797500", "154512.287500", "154513.777500", "154515.267500", "154516.757500", "154518.247500", "154519.737500", "154521.227500", "154522.717500", "154524.207500", "154525.697500", "154527.187500", "154528.677500", "154530.167500", "154531.657500", "154533.147500", "154534.637500", "154536.127500", "154537.617500", "154539.107500", "154540.597500", "154542.087500", "154543.577500", "154545.067500", "154546.557500", "154548.047500", "154549.537500", "154551.027500", "154552.517500", "154554.007500", "154555.497500", "154556.987500", "154558.477500", "154559.967500", "154601.457500", "154602.947500", "154604.437500", "154605.927500", "154607.417500", "154608.907500", "154610.397500", "154611.887500", "154613.377500", "154614.867500", "154616.357500", "154617.847500", "154619.337500"],
      "ContentTime": ["154234.492000", "154234.495000", "154234.497000", "154254.519000", "154254.522000", "154254.524000", "154254.527000", "154254.529000", "154254.532000", "154254.534000", "154254.537000", "154254.539000", "154254.542000", "154254.544000", "154254.547000", "154254.549000", "154254.551000", "154254.554000", "154254.556000", "154254.559000", "154254.561000", "154254.564000", "154254.566000", "154314.501000", "154314.504000", "154314.506000", "154314.509000", "154314.511000", "154314.514000", "154314.516000", "154314.519000", "154314.521000", "154314.524000", "154314.526000", "154314.528000", "154314.531000", "154314.533000", "154314.536000", "154314.538000", "154314.541000", "154314.543000", "154314.546000", "154314.548000", "154334.511000", "154334.514000", "154334.516000", "154334.519000", "154334.521000", "154334.524000", "154334.526000", "154334.529000", "154334.531000", "154334.533000", "154334.536000", "154334.538000", "154334.541000", "154334.543000", "154334.546000", "154334.548000", "154334.551000", "154334.553000", "154334.555000", "154334.558000", "154354.505000", "154354.508000", "154354.510000", "154354.513000", "154354.515000", "154354.518000", "154354.520000", "154354.523000", "154354.525000", "154354.528000", "154354.530000", "154354.533000", "154354.535000", "154354.537000", "154354.540000", "154354.542000", "154354.545000", "154354.547000", "154354.550000", "154354.552000", "154414.504000", "154414.507000", "154414.510000", "154414.512000", "154414.515000", "154414.517000", "154414.520000", "154414.522000", "154414.525000", "154414.527000", "154414.536000", "154414.539000", "154414.541000", "154414.543000", "154414.546000", "154414.548000", "154414.551000", "154414.553000", "154414.556000", "154414.558000", "154414.561000", "154454.534000", "154454.536000", "154454.540000", "154454.542000", "154454.545000", "154454.547000", "154454.550000", "154454.552000", "154454.555000", "154454.557000", "154454.560000", "154454.562000", "154454.565000", "154454.577000", "154454.579000", "154454.582000", "154454.584000", "154454.587000", "154454.589000", "154454.592000", "154454.594000", "154454.597000", "154454.599000", "154454.602000", "154454.604000", "154454.607000", "154454.609000", "154534.542000", "154534.545000", "154534.547000", "154534.550000", "154534.552000", "154534.555000", "154534.557000", "154534.560000", "154534.562000", "154534.565000", "154534.567000", "154534.570000", "154534.572000", "154534.575000", "154534.577000", "154534.580000", "154534.582000", "154534.584000", "154534.587000", "154534.589000", "154534.592000", "154534.594000", "154534.597000", "154534.599000", "154534.602000", "154534.604000", "154534.607000", "154614.533000", "154614.535000", "154614.538000", "154614.541000", "154614.544000", "154614.546000", "154614.549000", "154614.551000", "154614.554000", "154614.556000", "154614.559000", "154614.562000", "154614.564000", "154614.567000", "154614.569000", "154614.572000", "154614.574000", "154614.577000", "154614.579000", "154614.582000", "154614.584000", "154614.587000", "154614.589000", "154614.592000", "154614.594000", "154614.597000", "154614.599000", "154621.218000", "154621.221000", "154621.224000", "154621.226000", "154621.229000"],
      "InstanceCreationTime": ["154234.492000", "154234.495000", "154234.497000", "154254.519000", "154254.522000", "154254.524000", "154254.527000", "154254.529000", "154254.532000", "154254.534000", "154254.537000", "154254.539000", "154254.542000", "154254.544000", "154254.547000", "154254.549000", "154254.551000", "154254.554000", "154254.556000", "154254.559000", "154254.561000", "154254.564000", "154254.566000", "154314.501000", "154314.504000", "154314.506000", "154314.509000", "154314.511000", "154314.514000", "154314.516000", "154314.519000", "154314.521000", "154314.524000", "154314.526000", "154314.528000", "154314.531000", "154314.533000", "154314.536000", "154314.538000", "154314.541000", "154314.543000", "154314.546000", "154314.548000", "154334.511000", "154334.514000", "154334.516000", "154334.519000", "154334.521000", "154334.524000", "154334.526000", "154334.529000", "154334.531000", "154334.533000", "154334.536000", "154334.538000", "154334.541000", "154334.543000", "154334.546000", "154334.548000", "154334.551000", "154334.553000", "154334.555000", "154334.558000", "154354.505000", "154354.508000", "154354.510000", "154354.513000", "154354.515000", "154354.518000", "154354.520000", "154354.523000", "154354.525000", "154354.528000", "154354.530000", "154354.533000", "154354.535000", "154354.537000", "154354.540000", "154354.542000", "154354.545000", "154354.547000", "154354.550000", "154354.552000", "154414.504000", "154414.507000", "154414.510000", "154414.512000", "154414.515000", "154414.517000", "154414.520000", "154414.522000", "154414.525000", "154414.527000", "154414.536000", "154414.539000", "154414.541000", "154414.543000", "154414.546000", "154414.548000", "154414.551000", "154414.553000", "154414.556000", "154414.558000", "154414.561000", "154454.534000", "154454.536000", "154454.540000", "154454.542000", "154454.545000", "154454.547000", "154454.550000", "154454.552000", "154454.555000", "154454.557000", "154454.560000", "154454.562000", "154454.565000", "154454.577000", "154454.579000", "154454.582000", "154454.584000", "154454.587000", "154454.589000", "154454.592000", "154454.594000", "154454.597000", "154454.599000", "154454.602000", "154454.604000", "154454.607000", "154454.609000", "154534.542000", "154534.545000", "154534.547000", "154534.550000", "154534.552000", "154534.555000", "154534.557000", "154534.560000", "154534.562000", "154534.565000", "154534.567000", "154534.570000", "154534.572000", "154534.575000", "154534.577000", "154534.580000", "154534.582000", "154534.584000", "154534.587000", "154534.589000", "154534.592000", "154534.594000", "154534.597000", "154534.599000", "154534.602000", "154534.604000", "154534.607000", "154614.533000", "154614.535000", "154614.538000", "154614.541000", "154614.544000", "154614.546000", "154614.549000", "154614.551000", "154614.554000", "154614.556000", "154614.559000", "154614.562000", "154614.564000", "154614.567000", "154614.569000", "154614.572000", "154614.574000", "154614.577000", "154614.579000", "154614.582000", "154614.584000", "154614.587000", "154614.589000", "154614.592000", "154614.594000", "154614.597000", "154614.599000", "154621.218000", "154621.221000", "154621.224000", "154621.226000", "154621.229000"],
      "InstanceNumber": [1, 2, 3, 4, 5, 6, 7, 8, 9, 10, 11, 12, 13, 14, 15, 16, 17, 18, 19, 20, 21, 22, 23, 24, 25, 26, 27, 28, 29, 30, 31, 32, 33, 34, 35, 36, 37, 38, 39, 40, 41, 42, 43, 44, 45, 46, 47, 48, 49, 50, 51, 52, 53, 54, 55, 56, 57, 58, 59, 60, 61, 62, 63, 64, 65, 66, 67, 68, 69, 70, 71, 72, 73, 74, 75, 76, 77, 78, 79, 80, 81, 82, 83, 84, 85, 86, 87, 88, 89, 90, 91, 92, 93, 94, 95, 96, 97, 98, 99, 100, 101, 102, 103, 104, 105, 106, 107, 108, 109, 110, 111, 112, 113, 114, 115, 116, 117, 118, 119, 120, 121, 122, 123, 124, 125, 126, 127, 128, 129, 130, 131, 132, 133, 134, 135, 136, 137, 138, 139, 140, 141, 142, 143, 144, 145, 146, 147, 148, 149, 150, 151, 152, 153, 154, 155, 156, 157, 158, 159, 160, 161, 162, 163, 164, 165, 166, 167, 168, 169, 170, 171, 172, 173, 174, 175, 176, 177, 178, 179, 180, 181, 182, 183, 184, 185, 186, 187, 188, 189, 190],
      "WindowCenter": [4808.0, 4782.0, 4816.0, 4810.0, 4816.0, 4784.0, 4806.0, 4826.0, 4816.0, 4784.0, 4780.0, 4814.0, 4824.0, 4844.0, 4820.0, 4784.0, 4776.0, 4776.0, 4774.0, 4782.0, 4818.0, 4824.0, 4822.0, 4842.0, 4810.0, 4814.0, 4810.0, 4784.0, 4780.0, 4778.0, 4782.0, 4784.0, 4810.0, 4820.0, 4820.0, 4822.0, 4810.0, 4806.0, 4812.0, 4802.0, 4776.0, 4796.0, 4780.0, 4810.0, 4808.0, 4812.0, 4814.0, 4822.0, 4822.0, 4818.0, 4808.0, 4774.0, 4774.0, 4774.0, 4780.0, 4820.0, 4824.0, 4818.0, 4820.0, 4814.0, 4804.0, 4784.0, 4778.0, 4776.0, 4782.0, 4818.0, 4816.0, 4812.0, 4814.0, 4818.0, 4812.0, 4776.0, 4810.0, 4818.0, 4812.0, 4784.0, 4782.0, 4780.0, 4780.0, 4812.0, 4816.0, 4814.0, 4812.0, 4820.0, 4820.0, 4808.0, 4788.0, 4784.0, 4776.0, 4774.0, 4776.0, 4814.0, 4822.0, 4818.0, 4818.0, 4806.0, 4778.0, 4782.0, 4782.0, 4780.0, 4778.0, 4780.0, 4812.0, 4826.0, 4822.0, 4820.0, 4820.0, 4786.0, 4776.0, 4786.0, 4786.0, 4782.0, 4808.0, 4788.0, 4816.0, 4826.0, 4820.0, 4816.0, 4816.0, 4810.0, 4780.0, 4786.0, 4784.0, 4778.0, 4812.0, 4814.0, 4816.0, 4814.0, 4814.0, 4816.0, 4814.0, 4812.0, 4806.0, 4782.0, 4782.0, 4778.0, 4812.0, 4818.0, 4816.0, 4820.0, 4818.0, 4814.0, 4784.0, 4784.0, 4820.0, 4812.0, 4810.0, 4808.0, 4786.0, 4822.0, 4820.0, 4816.0, 4806.0, 4780.0, 4820.0, 4822.0, 4816.0, 4814.0, 4784.0, 4780.0, 4778.0, 4778.0, 4786.0, 4818.0, 4848.0, 4824.0, 4818.0, 4806.0, 4778.0, 4790.0, 4814.0, 4788.0, 4784.0, 4782.0, 4804.0, 4812.0, 4822.0, 4820.0, 4816.0, 4808.0, 4786.0, 4778.0, 4776.0, 4780.0, 4804.0, 4814.0, 4822.0, 4818.0, 4818.0, 4816.0],
      "WindowWidth": [18608.0, 18582.0, 18620.0, 18614.0, 18622.0, 18582.0, 18610.0, 18622.0, 18624.0, 18584.0, 18576.0, 18614.0, 18606.0, 18644.0, 18628.0, 18576.0, 18566.0, 18570.0, 18564.0, 18572.0, 18618.0, 18616.0, 18616.0, 18662.0, 18618.0, 18620.0, 18616.0, 18578.0, 18570.0, 18578.0, 18578.0, 18582.0, 18606.0, 18612.0, 18622.0, 18630.0, 18630.0, 18620.0, 18630.0, 18612.0, 18574.0, 18606.0, 18580.0, 18622.0, 18624.0, 18630.0, 18622.0, 18624.0, 18614.0, 18630.0, 18620.0, 18576.0, 18564.0, 18566.0, 18574.0, 18620.0, 18618.0, 18620.0, 18622.0, 18616.0, 18616.0, 18584.0, 18576.0, 18568.0, 18582.0, 18622.0, 18624.0, 18618.0, 18624.0, 18628.0, 18626.0, 18582.0, 18622.0, 18618.0, 18616.0, 18586.0, 18580.0, 18574.0, 18574.0, 18620.0, 18626.0, 18624.0, 18620.0, 18618.0, 18624.0, 18614.0, 18586.0, 18584.0, 18570.0, 18568.0, 18572.0, 18620.0, 18612.0, 18614.0, 18626.0, 18614.0, 18574.0, 18580.0, 18580.0, 18574.0, 18570.0, 18574.0, 18616.0, 18612.0, 18612.0, 18626.0, 18626.0, 18578.0, 18570.0, 18578.0, 18582.0, 18580.0, 18610.0, 18578.0, 18616.0, 18616.0, 18620.0, 18628.0, 18622.0, 18610.0, 18576.0, 18580.0, 18582.0, 18570.0, 18618.0, 18620.0, 18624.0, 18618.0, 18622.0, 18620.0, 18616.0, 18618.0, 18618.0, 18580.0, 18572.0, 18574.0, 18618.0, 18622.0, 18622.0, 18620.0, 18624.0, 18620.0, 18580.0, 18578.0, 18620.0, 18618.0, 18614.0, 18606.0, 18584.0, 18628.0, 18630.0, 18624.0, 18610.0, 18574.0, 18618.0, 18620.0, 18616.0, 18618.0, 18580.0, 18576.0, 18572.0, 18572.0, 18578.0, 18612.0, 18646.0, 18620.0, 18626.0, 18616.0, 18576.0, 18586.0, 18616.0, 18580.0, 18576.0, 18574.0, 18610.0, 18610.0, 18614.0, 18616.0, 18622.0, 18612.0, 18580.0, 18572.0, 18572.0, 18572.0, 18608.0, 18618.0, 18624.0, 18622.0, 18602.0, 18590.0]
    },
    "slices": {}
  }
}