{
  "AcquisitionMatrixPE": 104,
  "AcquisitionNumber": 1,
  "AcquisitionTime": "15:21:39.732500",
  "BandwidthPerPixelPhaseEncode": 17.17,
  "BaseResolution": 104,
  "BodyPartExamined": "BRAIN",
  "CoilString": "HC1-7;NC1_2",
  "ConsistencyInfo": "N4_VE11C_LATEST_20160120",
  "ConversionSoftware": "dcm2niix",
  "ConversionSoftwareVersion": "v1.0.20190902",
  "DerivedVendorReportedEchoSpacing": 0.000560011,
  "DeviceSerialNumber": "167006",
  "DwellTime": 2.1e-06,
  "EchoTime": 0.037,
  "EchoTrainLength": 104,
  "EffectiveEchoSpacing": 0.000560011,
  "FlipAngle": 52,
  "ImageComments": "Unaliased_MB4_PE3_LB",
  "ImageOrientationPatientDICOM": [0.999478, -0.0317855, -0.0057337, 0.0284417, 0.950275, -0.310109],
  "ImageType": [
    "ORIGINAL",
    "PRIMARY",
    "P",
    "MB",
    "ND",
    "MOSAIC"
],
  "ImagingFrequency": 123.259,
  "InPlanePhaseEncodingDirectionDICOM": "COL",
  "InstitutionAddress": "Chemin_Queen-Mary_4565_Montreal_District_CA_H3W_1W5",
  "InstitutionName": "IUGM",
  "InstitutionalDepartmentName": "Department",
  "MRAcquisitionType": "2D",
  "MagneticFieldStrength": 3,
  "Manufacturer": "Siemens",
  "ManufacturersModelName": "Prisma_fit",
  "Modality": "MR",
  "MultibandAccelerationFactor": 4,
  "PartialFourier": 1,
  "PatientPosition": "HFS",
  "PercentPhaseFOV": 100,
  "PhaseEncodingDirection": "j",
  "PhaseEncodingSteps": 104,
  "PhaseResolution": 1,
  "PixelBandwidth": 2290,
  "ProcedureStepDescription": "memory_things",
  "ProtocolName": "func_task-things_run-2",
  "PulseSequenceDetails": "%CustomerSeq%_cmrr_mbep2d_bold",
  "ReceiveCoilActiveElements": "HC1-7;NC1,2",
  "ReceiveCoilName": "HeadNeck_64",
  "ReconMatrixPE": 104,
  "RepetitionTime": 1.49,
  "SAR": 0.0427411,
  "ScanOptions": "FS",
  "ScanningSequence": "EP",
  "SequenceName": "epfid2d1_104",
  "SequenceVariant": "SK_SS",
  "SeriesDescription": "func_task-things_run-2",
  "SeriesNumber": 14,
  "ShimSetting": [625, -7258, -8829, 582, 12, -234, 0, -27],
  "SliceThickness": 2,
  "SliceTiming": [0, 0.785, 0.0975, 0.8825, 0.195, 0.98, 0.295, 1.0775, 0.3925, 1.175, 0.49, 1.275, 0.5875, 1.3725, 0.685, 0, 0.785, 0.0975, 0.8825, 0.195, 0.98, 0.295, 1.0775, 0.3925, 1.175, 0.49, 1.275, 0.5875, 1.3725, 0.685, 0, 0.785, 0.0975, 0.8825, 0.195, 0.98, 0.295, 1.0775, 0.3925, 1.175, 0.49, 1.275, 0.5875, 1.3725, 0.685, 0, 0.785, 0.0975, 0.8825, 0.195, 0.98, 0.295, 1.0775, 0.3925, 1.175, 0.49, 1.275, 0.5875, 1.3725, 0.685],
  "SoftwareVersions": "syngo_MR_E11",
  "SpacingBetweenSlices": 2,
  "StationName": "MRC35049",
  "TaskName": "things",
  "TotalReadoutTime": 0.0576811,
  "TxRefAmp": 240.089,
  "WipMemBlock": "84f0ba81-7d7f-4873-a502-ea2f26354181||Sequence: R016 ve11c/master r/e634e98; Dec 19 2017 11:00:25 by eja",
  "dcmmeta_affine": [
    [-1.998956561088562, 0.05688345059752464, -0.030611127614974976, 104.4881362915039],
    [0.06357096135616302, 1.9005508422851562, -0.6195687055587769, -69.29228210449219],
    [-0.011467399075627327, 0.6202184557914734, 1.9013673067092896, -63.357635498046875],
    [0.0, 0.0, 0.0, 1.0]
],
  "dcmmeta_reorient_transform": [
    [0.0, -1.0, 0.0, 103.0],
    [1.0, 0.0, 0.0, 0.0],
    [0.0, 0.0, 1.0, 0.0],
    [0.0, 0.0, 0.0, 1.0]
],
  "dcmmeta_shape": [104, 104, 60, 190],
  "dcmmeta_slice_dim": 2,
  "dcmmeta_version": 0.6,
  "global": {
    "const": {
      "AcquisitionMatrix": [104, 0, 0, 104],
      "AngioFlag": "N",
      "BitsAllocated": 16,
      "BitsStored": 16,
      "BodyPartExamined": "BRAIN",
      "Columns": 832,
      "EchoNumbers": 1,
      "EchoTime": 37.0,
      "EchoTrainLength": 104,
      "FlipAngle": 52.0,
      "HighBit": 15,
      "ImageOrientationPatient": [0.99947826790612, -0.0317854789964, -0.0057336993608, 0.02844172461559, 0.95027539923515, -0.3101092289974],
      "ImagePositionPatient": [-858.6728885205, -795.12511144141, 230.45851671145],
      "ImageType": [
        "ORIGINAL",
        "PRIMARY",
        "P",
        "MB",
        "ND",
        "MOSAIC"
],
      "ImagedNucleus": "1H",
      "ImagingFrequency": 123.258879,
      "InPlanePhaseEncodingDirection": "COL",
      "LargestImagePixelValue": 4095,
      "MRAcquisitionType": "2D",
      "MagneticFieldStrength": 3.0,
      "Manufacturer": "SIEMENS",
      "ManufacturerModelName": "Prisma_fit",
      "Modality": "MR",
      "NumberOfAverages": 1.0,
      "NumberOfPhaseEncodingSteps": 104,
      "PercentPhaseFieldOfView": 100.0,
      "PercentSampling": 100.0,
      "PerformedProcedureStepStartTime": "145027.458000",
      "PhotometricInterpretation": "MONOCHROME2",
      "PixelBandwidth": 2290.0,
      "PixelRepresentation": 0,
      "PixelSpacing": [2.0, 2.0],
      "ProtocolName": "func_task-things_run-2",
      "RepetitionTime": 1490.0,
      "RescaleIntercept": -4096.0,
      "RescaleSlope": 2.0,
      "RescaleType": "US",
      "Rows": 832,
      "SAR": 0.04274106902772,
      "SamplesPerPixel": 1,
      "ScanOptions": "FS",
      "ScanningSequence": "EP",
      "SequenceName": "epfid2d1_104",
      "SequenceVariant": [
        "SK",
        "SS"
],
      "SeriesDescription": "func_task-things_run-2",
      "SeriesNumber": 14,
      "SeriesTime": "152254.500000",
      "SliceLocation": -40.366653055695,
      "SliceThickness": 2.0,
      "SmallestImagePixelValue": 0,
      "SoftwareVersions": "syngo MR E11",
      "SpacingBetweenSlices": 2.0000000330041,
      "SpecificCharacterSet": "ISO_IR 100",
      "StudyID": "1",
      "StudyTime": "145027.355000",
      "TransmitCoilName": "Body",
      "VariableFlipAngleFlag": "N",
      "WindowCenterWidthExplanation": "Algo1",
      "dBdt": 0.0},
    "slices": {}
  },
  "time": {
    "samples": {
      "AcquisitionNumber": [1, 2, 3, 4, 5, 6, 7, 8, 9, 10, 11, 12, 13, 14, 15, 16, 17, 18, 19, 20, 21, 22, 23, 24, 25, 26, 27, 28, 29, 30, 31, 32, 33, 34, 35, 36, 37, 38, 39, 40, 41, 42, 43, 44, 45, 46, 47, 48, 49, 50, 51, 52, 53, 54, 55, 56, 57, 58, 59, 60, 61, 62, 63, 64, 65, 66, 67, 68, 69, 70, 71, 72, 73, 74, 75, 76, 77, 78, 79, 80, 81, 82, 83, 84, 85, 86, 87, 88, 89, 90, 91, 92, 93, 94, 95, 96, 97, 98, 99, 100, 101, 102, 103, 104, 105, 106, 107, 108, 109, 110, 111, 112, 113, 114, 115, 116, 117, 118, 119, 120, 121, 122, 123, 124, 125, 126, 127, 128, 129, 130, 131, 132, 133, 134, 135, 136, 137, 138, 139, 140, 141, 142, 143, 144, 145, 146, 147, 148, 149, 150, 151, 152, 153, 154, 155, 156, 157, 158, 159, 160, 161, 162, 163, 164, 165, 166, 167, 168, 169, 170, 171, 172, 173, 174, 175, 176, 177, 178, 179, 180, 181, 182, 183, 184, 185, 186, 187, 188, 189, 190],
      "AcquisitionTime": ["152139.732500", "152141.222500", "152142.712500", "152144.202500", "152145.692500", "152147.182500", "152148.672500", "152150.162500", "152151.652500", "152153.142500", "152154.632500", "152156.122500", "152157.612500", "152159.102500", "152200.592500", "152202.082500", "152203.572500", "152205.062500", "152206.552500", "152208.042500", "152209.532500", "152211.022500", "152212.512500", "152214.002500", "152215.492500", "152216.982500", "152218.472500", "152219.962500", "152221.452500", "152222.942500", "152224.432500", "152225.922500", "152227.412500", "152228.902500", "152230.392500", "152231.882500", "152233.372500", "152234.862500", "152236.352500", "152237.842500", "152239.332500", "152240.822500", "152242.312500", "152243.802500", "152245.292500", "152246.782500", "152248.272500", "152249.762500", "152251.252500", "152252.742500", "152254.232500", "152255.722500", "152257.212500", "152258.702500", "152300.192500", "152301.682500", "152303.172500", "152304.662500", "152306.152500", "152307.642500", "152309.132500", "152310.622500", "152312.112500", "152313.602500", "152315.092500", "152316.582500", "152318.072500", "152319.562500", "152321.052500", "152322.542500", "152324.032500", "152325.522500", "152327.012500", "152328.502500", "152329.992500", "152331.482500", "152332.972500", "152334.462500", "152335.952500", "152337.442500", "152338.932500", "152340.422500", "152341.912500", "152343.402500", "152344.892500", "152346.382500", "152347.872500", "152349.362500", "152350.852500", "152352.342500", "152353.832500", "152355.322500", "152356.812500", "152358.302500", "152359.792500", "152401.282500", "152402.772500", "152404.262500", "152405.752500", "152407.242500", "152408.732500", "152410.222500", "152411.712500", "152413.202500", "152414.692500", "152416.182500", "152417.672500", "152419.162500", "152420.652500", "152422.142500", "152423.632500", "152425.122500", "152426.612500", "152428.102500", "152429.592500", "152431.082500", "152432.572500", "152434.062500", "152435.552500", "152437.042500", "152438.532500", "152440.022500", "152441.512500", "152443.002500", "152444.492500", "152445.982500", "152447.472500", "152448.962500", "152450.452500", "152451.942500", "152453.432500", "152454.922500", "152456.412500", "152457.902500", "152459.392500", "152500.882500", "152502.372500", "152503.862500", "152505.352500", "152506.842500", "152508.332500", "152509.822500", "152511.312500", "152512.802500", "152514.292500", "152515.782500", "152517.272500", "152518.762500", "152520.252500", "152521.742500", "152523.232500", "152524.722500", "152526.212500", "152527.702500", "152529.192500", "152530.682500", "152532.172500", "152533.662500", "152535.152500", "152536.642500", "152538.132500", "152539.622500", "152541.112500", "152542.602500", "152544.092500", "152545.582500", "152547.072500", "152548.562500", "152550.052500", "152551.542500", "152553.032500", "152554.522500", "152556.012500", "152557.502500", "152558.992500", "152600.482500", "152601.972500", "152603.462500", "152604.952500", "152606.442500", "152607.932500", "152609.422500", "152610.912500", "152612.402500", "152613.892500", "152615.382500", "152616.872500", "152618.362500", "152619.852500", "152621.342500"],
      "ContentTime": ["152254.502000", "152254.505000", "152254.507000", "152254.510000", "152254.512000", "152254.514000", "152254.517000", "152254.519000", "152254.522000", "152254.524000", "152254.529000", "152254.531000", "152254.533000", "152254.536000", "152254.538000", "152254.541000", "152254.543000", "152254.546000", "152254.548000", "152254.550000", "152254.553000", "152314.528000", "152314.530000", "152314.533000", "152314.535000", "152314.538000", "152314.547000", "152314.549000", "152314.552000", "152314.554000", "152314.557000", "152314.559000", "152314.562000", "152314.564000", "152314.567000", "152314.569000", "152314.571000", "152314.574000", "152314.576000", "152314.579000", "152314.581000", "152334.531000", "152334.534000", "152334.537000", "152334.539000", "152334.542000", "152334.546000", "152334.550000", "152334.554000", "152334.557000", "152334.560000", "152334.562000", "152334.565000", "152334.568000", "152334.570000", "152334.573000", "152334.576000", "152334.578000", "152334.581000", "152334.583000", "152334.586000", "152354.530000", "152354.533000", "152354.535000", "152354.538000", "152354.540000", "152354.543000", "152354.545000", "152354.548000", "152354.550000", "152354.553000", "152354.555000", "152354.558000", "152354.560000", "152354.563000", "152354.565000", "152354.568000", "152354.570000", "152354.573000", "152354.575000", "152354.578000", "152354.580000", "152414.518000", "152414.520000", "152414.523000", "152414.526000", "152414.528000", "152414.530000", "152414.533000", "152414.535000", "152414.538000", "152414.540000", "152414.543000", "152414.545000", "152414.548000", "152414.550000", "152414.553000", "152414.555000", "152414.568000", "152414.570000", "152414.572000", "152414.575000", "152454.549000", "152454.552000", "152454.554000", "152454.557000", "152454.559000", "152454.562000", "152454.564000", "152454.567000", "152454.569000", "152454.571000", "152454.574000", "152454.576000", "152454.579000", "152454.581000", "152454.584000", "152454.586000", "152454.589000", "152454.591000", "152454.594000", "152454.596000", "152454.599000", "152454.601000", "152454.604000", "152454.606000", "152454.609000", "152454.611000", "152454.613000", "152534.528000", "152534.531000", "152534.533000", "152534.536000", "152534.538000", "152534.541000", "152534.543000", "152534.546000", "152534.548000", "152534.551000", "152534.553000", "152534.556000", "152534.558000", "152534.561000", "152534.563000", "152534.566000", "152534.568000", "152534.570000", "152534.573000", "152534.575000", "152534.578000", "152534.580000", "152534.583000", "152534.585000", "152534.594000", "152534.596000", "152534.599000", "152614.541000", "152614.544000", "152614.546000", "152614.548000", "152614.551000", "152614.553000", "152614.556000", "152614.558000", "152614.561000", "152614.563000", "152614.566000", "152614.568000", "152614.571000", "152614.573000", "152614.576000", "152614.578000", "152614.581000", "152614.583000", "152614.586000", "152614.588000", "152614.591000", "152614.593000", "152614.596000", "152614.598000", "152614.601000", "152614.603000", "152614.605000", "152623.941000", "152623.944000", "152623.946000", "152623.949000", "152623.951000", "152623.954000", "152623.957000"],
      "InstanceCreationTime": ["152254.502000", "152254.505000", "152254.507000", "152254.510000", "152254.512000", "152254.514000", "152254.517000", "152254.519000", "152254.522000", "152254.524000", "152254.529000", "152254.531000", "152254.533000", "152254.536000", "152254.538000", "152254.541000", "152254.543000", "152254.546000", "152254.548000", "152254.550000", "152254.553000", "152314.528000", "152314.530000", "152314.533000", "152314.535000", "152314.538000", "152314.547000", "152314.549000", "152314.552000", "152314.554000", "152314.557000", "152314.559000", "152314.562000", "152314.564000", "152314.567000", "152314.569000", "152314.571000", "152314.574000", "152314.576000", "152314.579000", "152314.581000", "152334.531000", "152334.534000", "152334.537000", "152334.539000", "152334.542000", "152334.546000", "152334.550000", "152334.554000", "152334.557000", "152334.560000", "152334.562000", "152334.565000", "152334.568000", "152334.570000", "152334.573000", "152334.576000", "152334.578000", "152334.581000", "152334.583000", "152334.586000", "152354.530000", "152354.533000", "152354.535000", "152354.538000", "152354.540000", "152354.543000", "152354.545000", "152354.548000", "152354.550000", "152354.553000", "152354.555000", "152354.558000", "152354.560000", "152354.563000", "152354.565000", "152354.568000", "152354.570000", "152354.573000", "152354.575000", "152354.578000", "152354.580000", "152414.518000", "152414.520000", "152414.523000", "152414.526000", "152414.528000", "152414.530000", "152414.533000", "152414.535000", "152414.538000", "152414.540000", "152414.543000", "152414.545000", "152414.548000", "152414.550000", "152414.553000", "152414.555000", "152414.568000", "152414.570000", "152414.572000", "152414.575000", "152454.549000", "152454.552000", "152454.554000", "152454.557000", "152454.559000", "152454.562000", "152454.564000", "152454.567000", "152454.569000", "152454.571000", "152454.574000", "152454.576000", "152454.579000", "152454.581000", "152454.584000", "152454.586000", "152454.589000", "152454.591000", "152454.594000", "152454.596000", "152454.599000", "152454.601000", "152454.604000", "152454.606000", "152454.609000", "152454.611000", "152454.613000", "152534.528000", "152534.531000", "152534.533000", "152534.536000", "152534.538000", "152534.541000", "152534.543000", "152534.546000", "152534.548000", "152534.551000", "152534.553000", "152534.556000", "152534.558000", "152534.561000", "152534.563000", "152534.566000", "152534.568000", "152534.570000", "152534.573000", "152534.575000", "152534.578000", "152534.580000", "152534.583000", "152534.585000", "152534.594000", "152534.596000", "152534.599000", "152614.541000", "152614.544000", "152614.546000", "152614.548000", "152614.551000", "152614.553000", "152614.556000", "152614.558000", "152614.561000", "152614.563000", "152614.566000", "152614.568000", "152614.571000", "152614.573000", "152614.576000", "152614.578000", "152614.581000", "152614.583000", "152614.586000", "152614.588000", "152614.591000", "152614.593000", "152614.596000", "152614.598000", "152614.601000", "152614.603000", "152614.605000", "152623.941000", "152623.944000", "152623.946000", "152623.949000", "152623.951000", "152623.954000", "152623.957000"],
      "InstanceNumber": [1, 2, 3, 4, 5, 6, 7, 8, 9, 10, 11, 12, 13, 14, 15, 16, 17, 18, 19, 20, 21, 22, 23, 24, 25, 26, 27, 28, 29, 30, 31, 32, 33, 34, 35, 36, 37, 38, 39, 40, 41, 42, 43, 44, 45, 46, 47, 48, 49, 50, 51, 52, 53, 54, 55, 56, 57, 58, 59, 60, 61, 62, 63, 64, 65, 66, 67, 68, 69, 70, 71, 72, 73, 74, 75, 76, 77, 78, 79, 80, 81, 82, 83, 84, 85, 86, 87, 88, 89, 90, 91, 92, 93, 94, 95, 96, 97, 98, 99, 100, 101, 102, 103, 104, 105, 106, 107, 108, 109, 110, 111, 112, 113, 114, 115, 116, 117, 118, 119, 120, 121, 122, 123, 124, 125, 126, 127, 128, 129, 130, 131, 132, 133, 134, 135, 136, 137, 138, 139, 140, 141, 142, 143, 144, 145, 146, 147, 148, 149, 150, 151, 152, 153, 154, 155, 156, 157, 158, 159, 160, 161, 162, 163, 164, 165, 166, 167, 168, 169, 170, 171, 172, 173, 174, 175, 176, 177, 178, 179, 180, 181, 182, 183, 184, 185, 186, 187, 188, 189, 190],
      "WindowCenter": [4816.0, 4814.0, 4814.0, 4816.0, 4816.0, 4816.0, 4816.0, 4810.0, 4814.0, 4818.0, 4814.0, 4816.0, 4814.0, 4814.0, 4814.0, 4814.0, 4814.0, 4838.0, 4816.0, 4816.0, 4814.0, 4814.0, 4816.0, 4814.0, 4812.0, 4808.0, 4816.0, 4810.0, 4840.0, 4814.0, 4814.0, 4818.0, 4816.0, 4816.0, 4814.0, 4818.0, 4818.0, 4812.0, 4816.0, 4816.0, 4814.0, 4810.0, 4810.0, 4814.0, 4810.0, 4840.0, 4818.0, 4816.0, 4840.0, 4816.0, 4810.0, 4818.0, 4840.0, 4812.0, 4840.0, 4814.0, 4808.0, 4812.0, 4814.0, 4838.0, 4816.0, 4814.0, 4816.0, 4836.0, 4818.0, 4812.0, 4814.0, 4814.0, 4814.0, 4812.0, 4812.0, 4810.0, 4814.0, 4814.0, 4822.0, 4816.0, 4816.0, 4818.0, 4816.0, 4818.0, 4818.0, 4820.0, 4816.0, 4814.0, 4818.0, 4818.0, 4814.0, 4840.0, 4820.0, 4818.0, 4820.0, 4816.0, 4816.0, 4820.0, 4824.0, 4820.0, 4808.0, 4808.0, 4810.0, 4816.0, 4818.0, 4816.0, 4814.0, 4816.0, 4816.0, 4818.0, 4818.0, 4812.0, 4816.0, 4816.0, 4814.0, 4820.0, 4842.0, 4820.0, 4818.0, 4816.0, 4818.0, 4818.0, 4820.0, 4820.0, 4818.0, 4814.0, 4812.0, 4818.0, 4818.0, 4816.0, 4816.0, 4814.0, 4816.0, 4818.0, 4818.0, 4816.0, 4812.0, 4822.0, 4820.0, 4818.0, 4822.0, 4818.0, 4842.0, 4818.0, 4812.0, 4814.0, 4818.0, 4814.0, 4816.0, 4814.0, 4814.0, 4812.0, 4810.0, 4816.0, 4816.0, 4812.0, 4814.0, 4816.0, 4816.0, 4816.0, 4814.0, 4816.0, 4816.0, 4814.0, 4816.0, 4812.0, 4816.0, 4818.0, 4816.0, 4814.0, 4814.0, 4818.0, 4814.0, 4812.0, 4816.0, 4816.0, 4836.0, 4814.0, 4814.0, 4812.0, 4814.0, 4812.0, 4816.0, 4814.0, 4814.0, 4816.0, 4814.0, 4816.0, 4838.0, 4814.0, 4816.0, 4814.0, 4816.0, 4814.0],
      "WindowWidth": [18626.0, 18618.0, 18616.0, 18620.0, 18622.0, 18624.0, 18622.0, 18616.0, 18626.0, 18626.0, 18618.0, 18622.0, 18622.0, 18622.0, 18620.0, 18620.0, 18624.0, 18654.0, 18620.0, 18624.0, 18618.0, 18614.0, 18622.0, 18622.0, 18616.0, 18614.0, 18628.0, 18616.0, 18648.0, 18624.0, 18624.0, 18620.0, 18620.0, 18620.0, 18622.0, 18620.0, 18620.0, 18622.0, 18620.0, 18618.0, 18622.0, 18620.0, 18616.0, 18620.0, 18618.0, 18652.0, 18622.0, 18622.0, 18650.0, 18620.0, 18620.0, 18620.0, 18650.0, 18616.0, 18652.0, 18620.0, 18616.0, 18622.0, 18618.0, 18650.0, 18622.0, 18622.0, 18620.0, 18648.0, 18622.0, 18616.0, 18618.0, 18618.0, 18622.0, 18622.0, 18624.0, 18616.0, 18616.0, 18620.0, 18620.0, 18618.0, 18618.0, 18616.0, 18616.0, 18612.0, 18622.0, 18620.0, 18616.0, 18614.0, 18620.0, 18620.0, 18616.0, 18648.0, 18616.0, 18616.0, 18622.0, 18618.0, 18620.0, 18606.0, 18612.0, 18622.0, 18610.0, 18608.0, 18612.0, 18614.0, 18614.0, 18616.0, 18612.0, 18614.0, 18614.0, 18618.0, 18618.0, 18614.0, 18618.0, 18622.0, 18616.0, 18620.0, 18654.0, 18622.0, 18620.0, 18612.0, 18616.0, 18616.0, 18612.0, 18616.0, 18620.0, 18612.0, 18610.0, 18620.0, 18618.0, 18624.0, 18624.0, 18626.0, 18624.0, 18624.0, 18616.0, 18614.0, 18604.0, 18612.0, 18610.0, 18616.0, 18616.0, 18618.0, 18648.0, 18612.0, 18612.0, 18618.0, 18620.0, 18618.0, 18618.0, 18618.0, 18618.0, 18622.0, 18622.0, 18620.0, 18624.0, 18620.0, 18616.0, 18622.0, 18620.0, 18622.0, 18618.0, 18616.0, 18624.0, 18622.0, 18622.0, 18618.0, 18624.0, 18620.0, 18620.0, 18614.0, 18618.0, 18624.0, 18622.0, 18622.0, 18626.0, 18622.0, 18650.0, 18620.0, 18622.0, 18620.0, 18618.0, 18616.0, 18620.0, 18620.0, 18622.0, 18624.0, 18622.0, 18622.0, 18654.0, 18626.0, 18620.0, 18622.0, 18620.0, 18620.0]
    },
    "slices": {}
  }
}