{
  "AcquisitionMatrixPE": 104,
  "AcquisitionNumber": 1,
  "AcquisitionTime": "15:28:40.600000",
  "BandwidthPerPixelPhaseEncode": 17.17,
  "BaseResolution": 104,
  "BodyPartExamined": "BRAIN",
  "CoilString": "HC1-7;NC1_2",
  "ConsistencyInfo": "N4_VE11C_LATEST_20160120",
  "ConversionSoftware": "dcm2niix",
  "ConversionSoftwareVersion": "v1.0.20190902",
  "DerivedVendorReportedEchoSpacing": 0.000560011,
  "DeviceSerialNumber": "167006",
  "DwellTime": 2.1e-06,
  "EchoTime": 0.037,
  "EchoTrainLength": 104,
  "EffectiveEchoSpacing": 0.000560011,
  "FlipAngle": 52,
  "ImageComments": "Unaliased_MB4_PE3_LB",
  "ImageOrientationPatientDICOM": [0.999478, -0.0317855, -0.0057337, 0.0284417, 0.950275, -0.310109],
  "ImageType": [
    "ORIGINAL",
    "PRIMARY",
    "P",
    "MB",
    "ND",
    "MOSAIC"
],
  "ImagingFrequency": 123.259,
  "InPlanePhaseEncodingDirectionDICOM": "COL",
  "InstitutionAddress": "Chemin_Queen-Mary_4565_Montreal_District_CA_H3W_1W5",
  "InstitutionName": "IUGM",
  "InstitutionalDepartmentName": "Department",
  "MRAcquisitionType": "2D",
  "MagneticFieldStrength": 3,
  "Manufacturer": "Siemens",
  "ManufacturersModelName": "Prisma_fit",
  "Modality": "MR",
  "MultibandAccelerationFactor": 4,
  "PartialFourier": 1,
  "PatientPosition": "HFS",
  "PercentPhaseFOV": 100,
  "PhaseEncodingDirection": "j",
  "PhaseEncodingSteps": 104,
  "PhaseResolution": 1,
  "PixelBandwidth": 2290,
  "ProcedureStepDescription": "memory_things",
  "ProtocolName": "func_task-things_run-3",
  "PulseSequenceDetails": "%CustomerSeq%_cmrr_mbep2d_bold",
  "ReceiveCoilActiveElements": "HC1-7;NC1,2",
  "ReceiveCoilName": "HeadNeck_64",
  "ReconMatrixPE": 104,
  "RepetitionTime": 1.49,
  "SAR": 0.0427411,
  "ScanOptions": "FS",
  "ScanningSequence": "EP",
  "SequenceName": "epfid2d1_104",
  "SequenceVariant": "SK_SS",
  "SeriesDescription": "func_task-things_run-3",
  "SeriesNumber": 17,
  "ShimSetting": [625, -7258, -8829, 582, 12, -234, 0, -27],
  "SliceThickness": 2,
  "SliceTiming": [0, 0.785, 0.0975, 0.8825, 0.1975, 0.98, 0.295, 1.0775, 0.3925, 1.1775, 0.49, 1.275, 0.5875, 1.3725, 0.6875, 0, 0.785, 0.0975, 0.8825, 0.1975, 0.98, 0.295, 1.0775, 0.3925, 1.1775, 0.49, 1.275, 0.5875, 1.3725, 0.6875, 0, 0.785, 0.0975, 0.8825, 0.1975, 0.98, 0.295, 1.0775, 0.3925, 1.1775, 0.49, 1.275, 0.5875, 1.3725, 0.6875, 0, 0.785, 0.0975, 0.8825, 0.1975, 0.98, 0.295, 1.0775, 0.3925, 1.1775, 0.49, 1.275, 0.5875, 1.3725, 0.6875],
  "SoftwareVersions": "syngo_MR_E11",
  "SpacingBetweenSlices": 2,
  "StationName": "MRC35049",
  "TaskName": "things",
  "TotalReadoutTime": 0.0576811,
  "TxRefAmp": 240.089,
  "WipMemBlock": "64d0da39-3a1a-439c-bcc6-85855ff3c0d1||Sequence: R016 ve11c/master r/e634e98; Dec 19 2017 11:00:25 by eja",
  "dcmmeta_affine": [
    [-1.998956561088562, 0.05688345059752464, -0.030611127614974976, 104.4881362915039],
    [0.06357096135616302, 1.9005508422851562, -0.6195687055587769, -69.29228210449219],
    [-0.011467399075627327, 0.6202184557914734, 1.9013673067092896, -63.357635498046875],
    [0.0, 0.0, 0.0, 1.0]
],
  "dcmmeta_reorient_transform": [
    [0.0, -1.0, 0.0, 103.0],
    [1.0, 0.0, 0.0, 0.0],
    [0.0, 0.0, 1.0, 0.0],
    [0.0, 0.0, 0.0, 1.0]
],
  "dcmmeta_shape": [104, 104, 60, 190],
  "dcmmeta_slice_dim": 2,
  "dcmmeta_version": 0.6,
  "global": {
    "const": {
      "AcquisitionMatrix": [104, 0, 0, 104],
      "AngioFlag": "N",
      "BitsAllocated": 16,
      "BitsStored": 16,
      "BodyPartExamined": "BRAIN",
      "Columns": 832,
      "EchoNumbers": 1,
      "EchoTime": 37.0,
      "EchoTrainLength": 104,
      "FlipAngle": 52.0,
      "HighBit": 15,
      "ImageOrientationPatient": [0.99947826790612, -0.0317854789964, -0.0057336993608, 0.02844172461559, 0.95027539923515, -0.3101092289974],
      "ImagePositionPatient": [-858.6728885205, -795.12511144141, 230.45851671145],
      "ImageType": [
        "ORIGINAL",
        "PRIMARY",
        "P",
        "MB",
        "ND",
        "MOSAIC"
],
      "ImagedNucleus": "1H",
      "ImagingFrequency": 123.258883,
      "InPlanePhaseEncodingDirection": "COL",
      "LargestImagePixelValue": 4095,
      "MRAcquisitionType": "2D",
      "MagneticFieldStrength": 3.0,
      "Manufacturer": "SIEMENS",
      "ManufacturerModelName": "Prisma_fit",
      "Modality": "MR",
      "NumberOfAverages": 1.0,
      "NumberOfPhaseEncodingSteps": 104,
      "PercentPhaseFieldOfView": 100.0,
      "PercentSampling": 100.0,
      "PerformedProcedureStepStartTime": "145027.458000",
      "PhotometricInterpretation": "MONOCHROME2",
      "PixelBandwidth": 2290.0,
      "PixelRepresentation": 0,
      "PixelSpacing": [2.0, 2.0],
      "ProtocolName": "func_task-things_run-3",
      "RepetitionTime": 1490.0,
      "RescaleIntercept": -4096.0,
      "RescaleSlope": 2.0,
      "RescaleType": "US",
      "Rows": 832,
      "SAR": 0.04274106902772,
      "SamplesPerPixel": 1,
      "ScanOptions": "FS",
      "ScanningSequence": "EP",
      "SequenceName": "epfid2d1_104",
      "SequenceVariant": [
        "SK",
        "SS"
],
      "SeriesDescription": "func_task-things_run-3",
      "SeriesNumber": 17,
      "SeriesTime": "153003.594000",
      "SliceLocation": -40.366653055695,
      "SliceThickness": 2.0,
      "SmallestImagePixelValue": 0,
      "SoftwareVersions": "syngo MR E11",
      "SpacingBetweenSlices": 2.0000000330041,
      "SpecificCharacterSet": "ISO_IR 100",
      "StudyID": "1",
      "StudyTime": "145027.355000",
      "TransmitCoilName": "Body",
      "VariableFlipAngleFlag": "N",
      "WindowCenterWidthExplanation": "Algo1",
      "dBdt": 0.0},
    "slices": {}
  },
  "time": {
    "samples": {
      "AcquisitionNumber": [1, 2, 3, 4, 5, 6, 7, 8, 9, 10, 11, 12, 13, 14, 15, 16, 17, 18, 19, 20, 21, 22, 23, 24, 25, 26, 27, 28, 29, 30, 31, 32, 33, 34, 35, 36, 37, 38, 39, 40, 41, 42, 43, 44, 45, 46, 47, 48, 49, 50, 51, 52, 53, 54, 55, 56, 57, 58, 59, 60, 61, 62, 63, 64, 65, 66, 67, 68, 69, 70, 71, 72, 73, 74, 75, 76, 77, 78, 79, 80, 81, 82, 83, 84, 85, 86, 87, 88, 89, 90, 91, 92, 93, 94, 95, 96, 97, 98, 99, 100, 101, 102, 103, 104, 105, 106, 107, 108, 109, 110, 111, 112, 113, 114, 115, 116, 117, 118, 119, 120, 121, 122, 123, 124, 125, 126, 127, 128, 129, 130, 131, 132, 133, 134, 135, 136, 137, 138, 139, 140, 141, 142, 143, 144, 145, 146, 147, 148, 149, 150, 151, 152, 153, 154, 155, 156, 157, 158, 159, 160, 161, 162, 163, 164, 165, 166, 167, 168, 169, 170, 171, 172, 173, 174, 175, 176, 177, 178, 179, 180, 181, 182, 183, 184, 185, 186, 187, 188, 189, 190],
      "AcquisitionTime": ["152840.600000", "152842.090000", "152843.580000", "152845.070000", "152846.560000", "152848.050000", "152849.540000", "152851.030000", "152852.520000", "152854.010000", "152855.500000", "152856.990000", "152858.480000", "152859.970000", "152901.460000", "152902.950000", "152904.440000", "152905.930000", "152907.420000", "152908.910000", "152910.400000", "152911.890000", "152913.380000", "152914.870000", "152916.360000", "152917.850000", "152919.340000", "152920.830000", "152922.320000", "152923.810000", "152925.300000", "152926.790000", "152928.280000", "152929.770000", "152931.260000", "152932.750000", "152934.240000", "152935.730000", "152937.220000", "152938.710000", "152940.200000", "152941.690000", "152943.180000", "152944.670000", "152946.160000", "152947.650000", "152949.140000", "152950.630000", "152952.120000", "152953.610000", "152955.100000", "152956.590000", "152958.080000", "152959.570000", "153001.060000", "153002.550000", "153004.040000", "153005.530000", "153007.020000", "153008.510000", "153010.000000", "153011.490000", "153012.980000", "153014.470000", "153015.960000", "153017.450000", "153018.940000", "153020.430000", "153021.920000", "153023.410000", "153024.900000", "153026.390000", "153027.880000", "153029.370000", "153030.860000", "153032.350000", "153033.840000", "153035.330000", "153036.820000", "153038.310000", "153039.800000", "153041.290000", "153042.780000", "153044.270000", "153045.760000", "153047.250000", "153048.740000", "153050.230000", "153051.720000", "153053.210000", "153054.700000", "153056.190000", "153057.680000", "153059.170000", "153100.660000", "153102.150000", "153103.640000", "153105.130000", "153106.620000", "153108.110000", "153109.600000", "153111.090000", "153112.580000", "153114.070000", "153115.560000", "153117.050000", "153118.540000", "153120.030000", "153121.520000", "153123.010000", "153124.500000", "153125.990000", "153127.480000", "153128.970000", "153130.460000", "153131.950000", "153133.440000", "153134.930000", "153136.420000", "153137.910000", "153139.400000", "153140.890000", "153142.380000", "153143.870000", "153145.360000", "153146.850000", "153148.340000", "153149.830000", "153151.320000", "153152.810000", "153154.300000", "153155.790000", "153157.280000", "153158.770000", "153200.260000", "153201.750000", "153203.240000", "153204.730000", "153206.220000", "153207.710000", "153209.200000", "153210.690000", "153212.180000", "153213.670000", "153215.160000", "153216.650000", "153218.140000", "153219.630000", "153221.120000", "153222.610000", "153224.100000", "153225.590000", "153227.080000", "153228.570000", "153230.060000", "153231.550000", "153233.040000", "153234.530000", "153236.020000", "153237.510000", "153239.000000", "153240.490000", "153241.980000", "153243.470000", "153244.960000", "153246.450000", "153247.940000", "153249.430000", "153250.920000", "153252.410000", "153253.900000", "153255.390000", "153256.880000", "153258.370000", "153259.860000", "153301.350000", "153302.840000", "153304.330000", "153305.820000", "153307.310000", "153308.800000", "153310.290000", "153311.780000", "153313.270000", "153314.760000", "153316.250000", "153317.740000", "153319.230000", "153320.720000", "153322.210000"],
      "ContentTime": ["153003.596000", "153003.598000", "153003.601000", "153003.604000", "153003.606000", "153003.608000", "153003.611000", "153003.613000", "153003.616000", "153003.618000", "153003.621000", "153003.623000", "153003.626000", "153003.628000", "153003.631000", "153003.633000", "153003.635000", "153003.638000", "153003.640000", "153003.643000", "153003.645000", "153003.648000", "153003.650000", "153003.653000", "153003.655000", "153003.658000", "153003.665000", "153003.671000", "153003.673000", "153003.676000", "153003.678000", "153023.548000", "153023.551000", "153023.553000", "153023.556000", "153023.558000", "153023.561000", "153023.563000", "153023.565000", "153023.568000", "153023.570000", "153023.573000", "153023.575000", "153023.578000", "153023.580000", "153023.582000", "153023.585000", "153023.587000", "153023.590000", "153023.592000", "153023.595000", "153043.530000", "153043.532000", "153043.535000", "153043.537000", "153043.540000", "153043.542000", "153043.545000", "153043.547000", "153043.549000", "153043.552000", "153043.554000", "153043.557000", "153043.559000", "153043.562000", "153043.564000", "153043.567000", "153043.569000", "153043.572000", "153043.574000", "153043.576000", "153103.529000", "153103.531000", "153103.534000", "153103.536000", "153103.539000", "153103.541000", "153103.544000", "153103.546000", "153103.549000", "153103.551000", "153103.554000", "153103.556000", "153103.559000", "153103.561000", "153103.563000", "153103.566000", "153103.568000", "153103.571000", "153103.573000", "153103.576000", "153143.583000", "153143.585000", "153143.588000", "153143.590000", "153143.593000", "153143.595000", "153143.598000", "153143.600000", "153143.603000", "153143.605000", "153143.607000", "153143.610000", "153143.612000", "153143.615000", "153143.617000", "153143.620000", "153143.622000", "153143.625000", "153143.627000", "153143.630000", "153143.632000", "153143.635000", "153143.637000", "153143.640000", "153143.642000", "153143.645000", "153143.647000", "153143.650000", "153143.652000", "153143.655000", "153143.657000", "153223.561000", "153223.564000", "153223.567000", "153223.569000", "153223.571000", "153223.574000", "153223.576000", "153223.579000", "153223.581000", "153223.584000", "153223.586000", "153223.589000", "153223.591000", "153223.594000", "153223.596000", "153223.599000", "153223.601000", "153223.604000", "153223.606000", "153223.609000", "153223.611000", "153223.614000", "153223.616000", "153223.618000", "153223.621000", "153223.623000", "153223.626000", "153303.975000", "153303.977000", "153303.981000", "153303.983000", "153303.986000", "153303.988000", "153303.991000", "153303.993000", "153303.996000", "153304.016000", "153304.018000", "153304.021000", "153304.023000", "153304.026000", "153304.028000", "153304.031000", "153304.033000", "153304.036000", "153304.038000", "153304.041000", "153304.043000", "153304.046000", "153304.048000", "153304.051000", "153304.053000", "153304.055000", "153324.429000", "153324.432000", "153324.434000", "153324.437000", "153324.439000", "153324.442000", "153324.444000", "153324.446000", "153324.449000", "153324.452000", "153324.454000", "153324.457000", "153324.459000", "153324.462000", "153324.464000"],
      "InstanceCreationTime": ["153003.596000", "153003.598000", "153003.601000", "153003.604000", "153003.606000", "153003.608000", "153003.611000", "153003.613000", "153003.616000", "153003.618000", "153003.621000", "153003.623000", "153003.626000", "153003.628000", "153003.631000", "153003.633000", "153003.635000", "153003.638000", "153003.640000", "153003.643000", "153003.645000", "153003.648000", "153003.650000", "153003.653000", "153003.655000", "153003.658000", "153003.665000", "153003.671000", "153003.673000", "153003.676000", "153003.678000", "153023.548000", "153023.551000", "153023.553000", "153023.556000", "153023.558000", "153023.561000", "153023.563000", "153023.565000", "153023.568000", "153023.570000", "153023.573000", "153023.575000", "153023.578000", "153023.580000", "153023.582000", "153023.585000", "153023.587000", "153023.590000", "153023.592000", "153023.595000", "153043.530000", "153043.532000", "153043.535000", "153043.537000", "153043.540000", "153043.542000", "153043.545000", "153043.547000", "153043.549000", "153043.552000", "153043.554000", "153043.557000", "153043.559000", "153043.562000", "153043.564000", "153043.567000", "153043.569000", "153043.572000", "153043.574000", "153043.576000", "153103.529000", "153103.531000", "153103.534000", "153103.536000", "153103.539000", "153103.541000", "153103.544000", "153103.546000", "153103.549000", "153103.551000", "153103.554000", "153103.556000", "153103.559000", "153103.561000", "153103.563000", "153103.566000", "153103.568000", "153103.571000", "153103.573000", "153103.576000", "153143.583000", "153143.585000", "153143.588000", "153143.590000", "153143.593000", "153143.595000", "153143.598000", "153143.600000", "153143.603000", "153143.605000", "153143.607000", "153143.610000", "153143.612000", "153143.615000", "153143.617000", "153143.620000", "153143.622000", "153143.625000", "153143.627000", "153143.630000", "153143.632000", "153143.635000", "153143.637000", "153143.640000", "153143.642000", "153143.645000", "153143.647000", "153143.650000", "153143.652000", "153143.655000", "153143.657000", "153223.561000", "153223.564000", "153223.567000", "153223.569000", "153223.571000", "153223.574000", "153223.576000", "153223.579000", "153223.581000", "153223.584000", "153223.586000", "153223.589000", "153223.591000", "153223.594000", "153223.596000", "153223.599000", "153223.601000", "153223.604000", "153223.606000", "153223.609000", "153223.611000", "153223.614000", "153223.616000", "153223.618000", "153223.621000", "153223.623000", "153223.626000", "153303.975000", "153303.977000", "153303.981000", "153303.983000", "153303.986000", "153303.988000", "153303.991000", "153303.993000", "153303.996000", "153304.016000", "153304.018000", "153304.021000", "153304.023000", "153304.026000", "153304.028000", "153304.031000", "153304.033000", "153304.036000", "153304.038000", "153304.041000", "153304.043000", "153304.046000", "153304.048000", "153304.051000", "153304.053000", "153304.055000", "153324.429000", "153324.432000", "153324.434000", "153324.437000", "153324.439000", "153324.442000", "153324.444000", "153324.446000", "153324.449000", "153324.452000", "153324.454000", "153324.457000", "153324.459000", "153324.462000", "153324.464000"],
      "InstanceNumber": [1, 2, 3, 4, 5, 6, 7, 8, 9, 10, 11, 12, 13, 14, 15, 16, 17, 18, 19, 20, 21, 22, 23, 24, 25, 26, 27, 28, 29, 30, 31, 32, 33, 34, 35, 36, 37, 38, 39, 40, 41, 42, 43, 44, 45, 46, 47, 48, 49, 50, 51, 52, 53, 54, 55, 56, 57, 58, 59, 60, 61, 62, 63, 64, 65, 66, 67, 68, 69, 70, 71, 72, 73, 74, 75, 76, 77, 78, 79, 80, 81, 82, 83, 84, 85, 86, 87, 88, 89, 90, 91, 92, 93, 94, 95, 96, 97, 98, 99, 100, 101, 102, 103, 104, 105, 106, 107, 108, 109, 110, 111, 112, 113, 114, 115, 116, 117, 118, 119, 120, 121, 122, 123, 124, 125, 126, 127, 128, 129, 130, 131, 132, 133, 134, 135, 136, 137, 138, 139, 140, 141, 142, 143, 144, 145, 146, 147, 148, 149, 150, 151, 152, 153, 154, 155, 156, 157, 158, 159, 160, 161, 162, 163, 164, 165, 166, 167, 168, 169, 170, 171, 172, 173, 174, 175, 176, 177, 178, 179, 180, 181, 182, 183, 184, 185, 186, 187, 188, 189, 190],
      "WindowCenter": [4810.0, 4810.0, 4814.0, 4812.0, 4810.0, 4812.0, 4812.0, 4810.0, 4810.0, 4810.0, 4806.0, 4812.0, 4808.0, 4806.0, 4806.0, 4810.0, 4810.0, 4808.0, 4812.0, 4810.0, 4812.0, 4814.0, 4812.0, 4808.0, 4808.0, 4812.0, 4808.0, 4812.0, 4814.0, 4810.0, 4816.0, 4814.0, 4812.0, 4808.0, 4810.0, 4812.0, 4812.0, 4816.0, 4812.0, 4812.0, 4808.0, 4810.0, 4812.0, 4810.0, 4810.0, 4814.0, 4814.0, 4810.0, 4814.0, 4810.0, 4818.0, 4814.0, 4816.0, 4812.0, 4816.0, 4810.0, 4814.0, 4812.0, 4816.0, 4816.0, 4816.0, 4814.0, 4812.0, 4808.0, 4814.0, 4812.0, 4816.0, 4820.0, 4814.0, 4816.0, 4818.0, 4816.0, 4814.0, 4812.0, 4818.0, 4814.0, 4814.0, 4812.0, 4814.0, 4814.0, 4816.0, 4816.0, 4814.0, 4814.0, 4812.0, 4806.0, 4808.0, 4818.0, 4810.0, 4806.0, 4802.0, 4804.0, 4812.0, 4814.0, 4812.0, 4816.0, 4812.0, 4814.0, 4814.0, 4820.0, 4818.0, 4806.0, 4806.0, 4802.0, 4806.0, 4810.0, 4814.0, 4814.0, 4814.0, 4818.0, 4810.0, 4816.0, 4818.0, 4810.0, 4806.0, 4808.0, 4802.0, 4808.0, 4838.0, 4810.0, 4812.0, 4816.0, 4816.0, 4812.0, 4808.0, 4816.0, 4808.0, 4814.0, 4816.0, 4810.0, 4808.0, 4810.0, 4808.0, 4812.0, 4814.0, 4814.0, 4818.0, 4810.0, 4814.0, 4810.0, 4806.0, 4810.0, 4812.0, 4810.0, 4816.0, 4810.0, 4810.0, 4816.0, 4812.0, 4838.0, 4812.0, 4812.0, 4812.0, 4818.0, 4808.0, 4812.0, 4808.0, 4814.0, 4816.0, 4810.0, 4812.0, 4810.0, 4812.0, 4812.0, 4812.0, 4814.0, 4814.0, 4808.0, 4814.0, 4814.0, 4814.0, 4816.0, 4840.0, 4812.0, 4814.0, 4810.0, 4810.0, 4816.0, 4810.0, 4814.0, 4810.0, 4812.0, 4812.0, 4812.0, 4814.0, 4810.0, 4810.0, 4812.0, 4812.0, 4810.0],
      "WindowWidth": [18620.0, 18620.0, 18626.0, 18624.0, 18620.0, 18628.0, 18620.0, 18624.0, 18620.0, 18620.0, 18612.0, 18622.0, 18618.0, 18612.0, 18614.0, 18620.0, 18616.0, 18616.0, 18618.0, 18618.0, 18620.0, 18624.0, 18622.0, 18612.0, 18610.0, 18622.0, 18616.0, 18624.0, 18628.0, 18622.0, 18624.0, 18624.0, 18626.0, 18614.0, 18618.0, 18618.0, 18622.0, 18624.0, 18618.0, 18618.0, 18616.0, 18620.0, 18618.0, 18620.0, 18622.0, 18620.0, 18610.0, 18612.0, 18616.0, 18614.0, 18618.0, 18614.0, 18612.0, 18610.0, 18614.0, 18612.0, 18612.0, 18610.0, 18618.0, 18616.0, 18612.0, 18612.0, 18612.0, 18606.0, 18612.0, 18616.0, 18616.0, 18618.0, 18612.0, 18618.0, 18618.0, 18612.0, 18608.0, 18612.0, 18616.0, 18616.0, 18610.0, 18614.0, 18610.0, 18614.0, 18626.0, 18622.0, 18620.0, 18624.0, 18622.0, 18614.0, 18616.0, 18620.0, 18620.0, 18610.0, 18608.0, 18606.0, 18622.0, 18618.0, 18620.0, 18626.0, 18620.0, 18618.0, 18616.0, 18610.0, 18614.0, 18606.0, 18606.0, 18606.0, 18614.0, 18622.0, 18626.0, 18618.0, 18626.0, 18628.0, 18618.0, 18622.0, 18628.0, 18624.0, 18614.0, 18614.0, 18608.0, 18616.0, 18658.0, 18612.0, 18626.0, 18624.0, 18624.0, 18620.0, 18616.0, 18620.0, 18614.0, 18620.0, 18628.0, 18622.0, 18614.0, 18616.0, 18612.0, 18620.0, 18624.0, 18622.0, 18626.0, 18622.0, 18618.0, 18614.0, 18612.0, 18620.0, 18620.0, 18624.0, 18624.0, 18620.0, 18616.0, 18622.0, 18624.0, 18652.0, 18622.0, 18624.0, 18620.0, 18624.0, 18616.0, 18622.0, 18616.0, 18620.0, 18622.0, 18620.0, 18618.0, 18620.0, 18622.0, 18618.0, 18616.0, 18620.0, 18622.0, 18614.0, 18620.0, 18624.0, 18626.0, 18622.0, 18656.0, 18622.0, 18622.0, 18622.0, 18616.0, 18628.0, 18616.0, 18624.0, 18616.0, 18618.0, 18616.0, 18626.0, 18622.0, 18618.0, 18614.0, 18622.0, 18624.0, 18620.0]
    },
    "slices": {}
  }
}