{
  "AcquisitionMatrixPE": 104,
  "AcquisitionNumber": 1,
  "AcquisitionTime": "15:14:46.132500",
  "BandwidthPerPixelPhaseEncode": 17.17,
  "BaseResolution": 104,
  "BodyPartExamined": "BRAIN",
  "CoilString": "HC1-7;NC1_2",
  "ConsistencyInfo": "N4_VE11C_LATEST_20160120",
  "ConversionSoftware": "dcm2niix",
  "ConversionSoftwareVersion": "v1.0.20190902",
  "DerivedVendorReportedEchoSpacing": 0.000560011,
  "DeviceSerialNumber": "167006",
  "DwellTime": 2.1e-06,
  "EchoTime": 0.037,
  "EchoTrainLength": 104,
  "EffectiveEchoSpacing": 0.000560011,
  "FlipAngle": 52,
  "ImageComments": "Unaliased_MB4_PE3_LB",
  "ImageOrientationPatientDICOM": [0.999478, -0.0317855, -0.0057337, 0.0284417, 0.950275, -0.310109],
  "ImageType": [
    "ORIGINAL",
    "PRIMARY",
    "M",
    "MB",
    "ND",
    "MOSAIC"
],
  "ImagingFrequency": 123.259,
  "InPlanePhaseEncodingDirectionDICOM": "COL",
  "InstitutionAddress": "Chemin_Queen-Mary_4565_Montreal_District_CA_H3W_1W5",
  "InstitutionName": "IUGM",
  "InstitutionalDepartmentName": "Department",
  "MRAcquisitionType": "2D",
  "MagneticFieldStrength": 3,
  "Manufacturer": "Siemens",
  "ManufacturersModelName": "Prisma_fit",
  "Modality": "MR",
  "MultibandAccelerationFactor": 4,
  "PartialFourier": 1,
  "PatientPosition": "HFS",
  "PercentPhaseFOV": 100,
  "PhaseEncodingDirection": "j",
  "PhaseEncodingSteps": 104,
  "PhaseResolution": 1,
  "PixelBandwidth": 2290,
  "ProcedureStepDescription": "memory_things",
  "ProtocolName": "func_task-things_run-1",
  "PulseSequenceDetails": "%CustomerSeq%_cmrr_mbep2d_bold",
  "ReceiveCoilActiveElements": "HC1-7;NC1,2",
  "ReceiveCoilName": "HeadNeck_64",
  "ReconMatrixPE": 104,
  "RepetitionTime": 1.49,
  "SAR": 0.0427411,
  "ScanOptions": "FS",
  "ScanningSequence": "EP",
  "SequenceName": "epfid2d1_104",
  "SequenceVariant": "SK_SS",
  "SeriesDescription": "func_task-things_run-1",
  "SeriesNumber": 10,
  "ShimSetting": [625, -7258, -8829, 582, 12, -234, 0, -27],
  "SliceThickness": 2,
  "SliceTiming": [0, 0.7825, 0.0975, 0.88, 0.195, 0.9775, 0.2925, 1.0775, 0.39, 1.175, 0.4875, 1.2725, 0.5875, 1.37, 0.685, 0, 0.7825, 0.0975, 0.88, 0.195, 0.9775, 0.2925, 1.0775, 0.39, 1.175, 0.4875, 1.2725, 0.5875, 1.37, 0.685, 0, 0.7825, 0.0975, 0.88, 0.195, 0.9775, 0.2925, 1.0775, 0.39, 1.175, 0.4875, 1.2725, 0.5875, 1.37, 0.685, 0, 0.7825, 0.0975, 0.88, 0.195, 0.9775, 0.2925, 1.0775, 0.39, 1.175, 0.4875, 1.2725, 0.5875, 1.37, 0.685],
  "SoftwareVersions": "syngo_MR_E11",
  "SpacingBetweenSlices": 2,
  "StationName": "MRC35049",
  "TaskName": "things",
  "TotalReadoutTime": 0.0576811,
  "TxRefAmp": 240.089,
  "WipMemBlock": "21120bb6-ed78-4d74-a7d5-50a4e31258d1||Sequence: R016 ve11c/master r/e634e98; Dec 19 2017 11:00:25 by eja",
  "dcmmeta_affine": [
    [-1.998956561088562, 0.05688345059752464, -0.030611127614974976, 104.4881362915039],
    [0.06357096135616302, 1.9005508422851562, -0.6195687055587769, -69.29228210449219],
    [-0.011467399075627327, 0.6202184557914734, 1.9013673067092896, -63.357635498046875],
    [0.0, 0.0, 0.0, 1.0]
],
  "dcmmeta_reorient_transform": [
    [0.0, -1.0, 0.0, 103.0],
    [1.0, 0.0, 0.0, 0.0],
    [0.0, 0.0, 1.0, 0.0],
    [0.0, 0.0, 0.0, 1.0]
],
  "dcmmeta_shape": [104, 104, 60, 190],
  "dcmmeta_slice_dim": 2,
  "dcmmeta_version": 0.6,
  "global": {
    "const": {
      "AcquisitionMatrix": [104, 0, 0, 104],
      "AngioFlag": "N",
      "BitsAllocated": 16,
      "BitsStored": 16,
      "BodyPartExamined": "BRAIN",
      "Columns": 832,
      "EchoNumbers": 1,
      "EchoTime": 37.0,
      "EchoTrainLength": 104,
      "FlipAngle": 52.0,
      "HighBit": 15,
      "ImageOrientationPatient": [0.99947826790612, -0.0317854789964, -0.0057336993608, 0.02844172461559, 0.95027539923515, -0.3101092289974],
      "ImagePositionPatient": [-858.6728885205, -795.12511144141, 230.45851671145],
      "ImageType": [
        "ORIGINAL",
        "PRIMARY",
        "M",
        "MB",
        "ND",
        "MOSAIC"
],
      "ImagedNucleus": "1H",
      "ImagingFrequency": 123.258876,
      "InPlanePhaseEncodingDirection": "COL",
      "MRAcquisitionType": "2D",
      "MagneticFieldStrength": 3.0,
      "Manufacturer": "SIEMENS",
      "ManufacturerModelName": "Prisma_fit",
      "Modality": "MR",
      "NumberOfAverages": 1.0,
      "NumberOfPhaseEncodingSteps": 104,
      "PercentPhaseFieldOfView": 100.0,
      "PercentSampling": 100.0,
      "PerformedProcedureStepStartTime": "145027.458000",
      "PhotometricInterpretation": "MONOCHROME2",
      "PixelBandwidth": 2290.0,
      "PixelRepresentation": 0,
      "PixelSpacing": [2.0, 2.0],
      "ProtocolName": "func_task-things_run-1",
      "RepetitionTime": 1490.0,
      "Rows": 832,
      "SAR": 0.04274106902772,
      "SamplesPerPixel": 1,
      "ScanOptions": "FS",
      "ScanningSequence": "EP",
      "SequenceName": "epfid2d1_104",
      "SequenceVariant": [
        "SK",
        "SS"
],
      "SeriesDescription": "func_task-things_run-1",
      "SeriesNumber": 10,
      "SeriesTime": "151615.196000",
      "SliceLocation": -40.366653055695,
      "SliceThickness": 2.0,
      "SmallestImagePixelValue": 0,
      "SoftwareVersions": "syngo MR E11",
      "SpacingBetweenSlices": 2.0000000330041,
      "SpecificCharacterSet": "ISO_IR 100",
      "StudyID": "1",
      "StudyTime": "145027.355000",
      "TransmitCoilName": "Body",
      "VariableFlipAngleFlag": "N",
      "WindowCenterWidthExplanation": "Algo1",
      "dBdt": 0.0},
    "slices": {}
  },
  "time": {
    "samples": {
      "AcquisitionNumber": [1, 2, 3, 4, 5, 6, 7, 8, 9, 10, 11, 12, 13, 14, 15, 16, 17, 18, 19, 20, 21, 22, 23, 24, 25, 26, 27, 28, 29, 30, 31, 32, 33, 34, 35, 36, 37, 38, 39, 40, 41, 42, 43, 44, 45, 46, 47, 48, 49, 50, 51, 52, 53, 54, 55, 56, 57, 58, 59, 60, 61, 62, 63, 64, 65, 66, 67, 68, 69, 70, 71, 72, 73, 74, 75, 76, 77, 78, 79, 80, 81, 82, 83, 84, 85, 86, 87, 88, 89, 90, 91, 92, 93, 94, 95, 96, 97, 98, 99, 100, 101, 102, 103, 104, 105, 106, 107, 108, 109, 110, 111, 112, 113, 114, 115, 116, 117, 118, 119, 120, 121, 122, 123, 124, 125, 126, 127, 128, 129, 130, 131, 132, 133, 134, 135, 136, 137, 138, 139, 140, 141, 142, 143, 144, 145, 146, 147, 148, 149, 150, 151, 152, 153, 154, 155, 156, 157, 158, 159, 160, 161, 162, 163, 164, 165, 166, 167, 168, 169, 170, 171, 172, 173, 174, 175, 176, 177, 178, 179, 180, 181, 182, 183, 184, 185, 186, 187, 188, 189, 190],
      "AcquisitionTime": ["151446.132500", "151447.622500", "151449.112500", "151450.602500", "151452.092500", "151453.582500", "151455.072500", "151456.562500", "151458.052500", "151459.542500", "151501.032500", "151502.522500", "151504.012500", "151505.502500", "151506.992500", "151508.482500", "151509.972500", "151511.462500", "151512.952500", "151514.442500", "151515.932500", "151517.422500", "151518.912500", "151520.402500", "151521.892500", "151523.382500", "151524.872500", "151526.362500", "151527.852500", "151529.342500", "151530.832500", "151532.322500", "151533.812500", "151535.302500", "151536.792500", "151538.282500", "151539.772500", "151541.262500", "151542.752500", "151544.242500", "151545.732500", "151547.222500", "151548.712500", "151550.202500", "151551.692500", "151553.182500", "151554.672500", "151556.162500", "151557.652500", "151559.142500", "151600.632500", "151602.122500", "151603.612500", "151605.102500", "151606.592500", "151608.082500", "151609.572500", "151611.062500", "151612.552500", "151614.042500", "151615.532500", "151617.022500", "151618.512500", "151620.002500", "151621.492500", "151622.982500", "151624.472500", "151625.962500", "151627.452500", "151628.942500", "151630.432500", "151631.922500", "151633.412500", "151634.902500", "151636.392500", "151637.882500", "151639.372500", "151640.862500", "151642.352500", "151643.842500", "151645.332500", "151646.822500", "151648.312500", "151649.802500", "151651.292500", "151652.782500", "151654.272500", "151655.762500", "151657.252500", "151658.742500", "151700.232500", "151701.722500", "151703.212500", "151704.702500", "151706.192500", "151707.682500", "151709.172500", "151710.662500", "151712.152500", "151713.642500", "151715.132500", "151716.622500", "151718.112500", "151719.602500", "151721.092500", "151722.582500", "151724.072500", "151725.562500", "151727.052500", "151728.542500", "151730.032500", "151731.522500", "151733.012500", "151734.502500", "151735.992500", "151737.482500", "151738.972500", "151740.462500", "151741.952500", "151743.442500", "151744.932500", "151746.422500", "151747.912500", "151749.402500", "151750.892500", "151752.382500", "151753.872500", "151755.362500", "151756.852500", "151758.342500", "151759.832500", "151801.322500", "151802.812500", "151804.302500", "151805.792500", "151807.282500", "151808.772500", "151810.262500", "151811.752500", "151813.242500", "151814.732500", "151816.222500", "151817.712500", "151819.202500", "151820.692500", "151822.182500", "151823.672500", "151825.162500", "151826.652500", "151828.142500", "151829.632500", "151831.122500", "151832.612500", "151834.102500", "151835.592500", "151837.082500", "151838.572500", "151840.062500", "151841.552500", "151843.042500", "151844.532500", "151846.022500", "151847.512500", "151849.002500", "151850.492500", "151851.982500", "151853.472500", "151854.962500", "151856.452500", "151857.942500", "151859.432500", "151900.922500", "151902.412500", "151903.902500", "151905.392500", "151906.882500", "151908.372500", "151909.862500", "151911.352500", "151912.842500", "151914.332500", "151915.822500", "151917.312500", "151918.802500", "151920.292500", "151921.782500", "151923.272500", "151924.762500", "151926.252500", "151927.742500"],
      "ContentTime": ["151615.199000", "151615.203000", "151615.206000", "151615.210000", "151615.213000", "151615.216000", "151615.219000", "151615.223000", "151615.226000", "151615.229000", "151615.232000", "151615.236000", "151615.239000", "151615.242000", "151615.246000", "151615.249000", "151615.252000", "151615.255000", "151615.258000", "151615.262000", "151615.265000", "151615.268000", "151615.271000", "151615.275000", "151615.278000", "151615.281000", "151615.295000", "151615.298000", "151615.313000", "151615.316000", "151615.320000", "151615.323000", "151615.326000", "151635.152000", "151635.156000", "151635.159000", "151635.163000", "151635.166000", "151635.169000", "151635.173000", "151635.176000", "151635.179000", "151635.182000", "151635.185000", "151635.189000", "151635.192000", "151635.195000", "151635.198000", "151635.202000", "151635.205000", "151635.208000", "151635.211000", "151635.215000", "151655.152000", "151655.156000", "151655.159000", "151655.162000", "151655.165000", "151655.169000", "151655.172000", "151655.175000", "151655.179000", "151655.182000", "151655.185000", "151655.188000", "151655.192000", "151655.195000", "151655.198000", "151655.201000", "151655.204000", "151655.208000", "151655.212000", "151655.215000", "151655.218000", "151715.152000", "151715.156000", "151715.159000", "151715.163000", "151715.166000", "151715.169000", "151715.173000", "151715.176000", "151715.179000", "151715.182000", "151715.186000", "151715.189000", "151715.192000", "151715.196000", "151715.199000", "151715.202000", "151715.205000", "151715.209000", "151715.212000", "151715.215000", "151755.152000", "151755.156000", "151755.159000", "151755.162000", "151755.165000", "151755.169000", "151755.172000", "151755.175000", "151755.179000", "151755.182000", "151755.185000", "151755.188000", "151755.192000", "151755.195000", "151755.198000", "151755.201000", "151755.205000", "151755.208000", "151755.211000", "151755.215000", "151755.218000", "151755.221000", "151755.224000", "151755.228000", "151755.231000", "151755.234000", "151755.237000", "151755.241000", "151755.244000", "151755.247000", "151755.250000", "151755.254000", "151835.152000", "151835.157000", "151835.160000", "151835.163000", "151835.167000", "151835.170000", "151835.173000", "151835.178000", "151835.182000", "151835.185000", "151835.188000", "151835.192000", "151835.195000", "151835.198000", "151835.201000", "151835.205000", "151835.208000", "151835.211000", "151835.214000", "151835.218000", "151835.221000", "151835.224000", "151835.227000", "151835.231000", "151835.239000", "151835.242000", "151915.152000", "151915.156000", "151915.159000", "151915.162000", "151915.166000", "151915.169000", "151915.172000", "151915.175000", "151915.179000", "151915.182000", "151915.185000", "151915.189000", "151915.209000", "151915.212000", "151915.216000", "151915.219000", "151915.222000", "151915.225000", "151915.229000", "151915.232000", "151915.235000", "151915.238000", "151915.242000", "151915.245000", "151915.248000", "151915.251000", "151915.255000", "151930.360000", "151930.364000", "151930.367000", "151930.371000", "151930.374000", "151930.378000", "151930.381000", "151930.385000", "151930.388000", "151930.391000", "151930.395000"],
      "InstanceCreationTime": ["151615.199000", "151615.203000", "151615.206000", "151615.210000", "151615.213000", "151615.216000", "151615.219000", "151615.223000", "151615.226000", "151615.229000", "151615.232000", "151615.236000", "151615.239000", "151615.242000", "151615.246000", "151615.249000", "151615.252000", "151615.255000", "151615.258000", "151615.262000", "151615.265000", "151615.268000", "151615.271000", "151615.275000", "151615.278000", "151615.281000", "151615.295000", "151615.298000", "151615.313000", "151615.316000", "151615.320000", "151615.323000", "151615.326000", "151635.152000", "151635.156000", "151635.159000", "151635.163000", "151635.166000", "151635.169000", "151635.173000", "151635.176000", "151635.179000", "151635.182000", "151635.185000", "151635.189000", "151635.192000", "151635.195000", "151635.198000", "151635.202000", "151635.205000", "151635.208000", "151635.211000", "151635.215000", "151655.152000", "151655.156000", "151655.159000", "151655.162000", "151655.165000", "151655.169000", "151655.172000", "151655.175000", "151655.179000", "151655.182000", "151655.185000", "151655.188000", "151655.192000", "151655.195000", "151655.198000", "151655.201000", "151655.204000", "151655.208000", "151655.212000", "151655.215000", "151655.218000", "151715.152000", "151715.156000", "151715.159000", "151715.163000", "151715.166000", "151715.169000", "151715.173000", "151715.176000", "151715.179000", "151715.182000", "151715.186000", "151715.189000", "151715.192000", "151715.196000", "151715.199000", "151715.202000", "151715.205000", "151715.209000", "151715.212000", "151715.215000", "151755.152000", "151755.156000", "151755.159000", "151755.162000", "151755.165000", "151755.169000", "151755.172000", "151755.175000", "151755.179000", "151755.182000", "151755.185000", "151755.188000", "151755.192000", "151755.195000", "151755.198000", "151755.201000", "151755.205000", "151755.208000", "151755.211000", "151755.215000", "151755.218000", "151755.221000", "151755.224000", "151755.228000", "151755.231000", "151755.234000", "151755.237000", "151755.241000", "151755.244000", "151755.247000", "151755.250000", "151755.254000", "151835.152000", "151835.157000", "151835.160000", "151835.163000", "151835.167000", "151835.170000", "151835.173000", "151835.178000", "151835.182000", "151835.185000", "151835.188000", "151835.192000", "151835.195000", "151835.198000", "151835.201000", "151835.205000", "151835.208000", "151835.211000", "151835.214000", "151835.218000", "151835.221000", "151835.224000", "151835.227000", "151835.231000", "151835.239000", "151835.242000", "151915.152000", "151915.156000", "151915.159000", "151915.162000", "151915.166000", "151915.169000", "151915.172000", "151915.175000", "151915.179000", "151915.182000", "151915.185000", "151915.189000", "151915.209000", "151915.212000", "151915.216000", "151915.219000", "151915.222000", "151915.225000", "151915.229000", "151915.232000", "151915.235000", "151915.238000", "151915.242000", "151915.245000", "151915.248000", "151915.251000", "151915.255000", "151930.360000", "151930.364000", "151930.367000", "151930.371000", "151930.374000", "151930.378000", "151930.381000", "151930.385000", "151930.388000", "151930.391000", "151930.395000"],
      "InstanceNumber": [1, 2, 3, 4, 5, 6, 7, 8, 9, 10, 11, 12, 13, 14, 15, 16, 17, 18, 19, 20, 21, 22, 23, 24, 25, 26, 27, 28, 29, 30, 31, 32, 33, 34, 35, 36, 37, 38, 39, 40, 41, 42, 43, 44, 45, 46, 47, 48, 49, 50, 51, 52, 53, 54, 55, 56, 57, 58, 59, 60, 61, 62, 63, 64, 65, 66, 67, 68, 69, 70, 71, 72, 73, 74, 75, 76, 77, 78, 79, 80, 81, 82, 83, 84, 85, 86, 87, 88, 89, 90, 91, 92, 93, 94, 95, 96, 97, 98, 99, 100, 101, 102, 103, 104, 105, 106, 107, 108, 109, 110, 111, 112, 113, 114, 115, 116, 117, 118, 119, 120, 121, 122, 123, 124, 125, 126, 127, 128, 129, 130, 131, 132, 133, 134, 135, 136, 137, 138, 139, 140, 141, 142, 143, 144, 145, 146, 147, 148, 149, 150, 151, 152, 153, 154, 155, 156, 157, 158, 159, 160, 161, 162, 163, 164, 165, 166, 167, 168, 169, 170, 171, 172, 173, 174, 175, 176, 177, 178, 179, 180, 181, 182, 183, 184, 185, 186, 187, 188, 189, 190],
      "LargestImagePixelValue": [45077, 42700, 43342, 43671, 42220, 42764, 40726, 40907, 43172, 43131, 42899, 41768, 41040, 40287, 40881, 40999, 40855, 41009, 42916, 42270, 42868, 42593, 41337, 41786, 40293, 41916, 42443, 42612, 41189, 41644, 41409, 40898, 42227, 43133, 41499, 41630, 41881, 41193, 41722, 41702, 41431, 41719, 40989, 41245, 41494, 40242, 41497, 40471, 41474, 41524, 40225, 41572, 40892, 41437, 41643, 41508, 41617, 41796, 41136, 41182, 40387, 41830, 41578, 40532, 41432, 41519, 40838, 41809, 41358, 40468, 41608, 42105, 41490, 41643, 41313, 41080, 40124, 41204, 40891, 40535, 41675, 41441, 40695, 41326, 41045, 39597, 41990, 42091, 41355, 41541, 40997, 40699, 42095, 40687, 41343, 41303, 40956, 41753, 41574, 40776, 41499, 39896, 41247, 40583, 41495, 41504, 40625, 41368, 40841, 41112, 40777, 40839, 42051, 41107, 40731, 41066, 41425, 39944, 41210, 39959, 40931, 40842, 40294, 41473, 40490, 41030, 40926, 40584, 41165, 41339, 41043, 41808, 40563, 40477, 40677, 39557, 41268, 41277, 40315, 40917, 40570, 39523, 40070, 41943, 41721, 41414, 41744, 40910, 41516, 40297, 41027, 40302, 40270, 40964, 41286, 40111, 41120, 40697, 39763, 41195, 40774, 40209, 40642, 39718, 40799, 40609, 40470, 40571, 40148, 40909, 40816, 39812, 40699, 40418, 39832, 40499, 39403, 40448, 40275, 40364, 41115, 40081, 41507, 39808, 39923, 39885, 39160, 39910, 39921, 39982],
      "WindowCenter": [10504.0, 10471.0, 10453.0, 10410.0, 10371.0, 10373.0, 10373.0, 10423.0, 10452.0, 10410.0, 10376.0, 10350.0, 10342.0, 10308.0, 10294.0, 10296.0, 10304.0, 10319.0, 10360.0, 10364.0, 10369.0, 10372.0, 10375.0, 10388.0, 10396.0, 10414.0, 10410.0, 10395.0, 10369.0, 10366.0, 10370.0, 10354.0, 10342.0, 10345.0, 10334.0, 10335.0, 10350.0, 10361.0, 10359.0, 10367.0, 10368.0, 10380.0, 10380.0, 10385.0, 10385.0, 10383.0, 10374.0, 10371.0, 10383.0, 10389.0, 10388.0, 10377.0, 10361.0, 10353.0, 10350.0, 10359.0, 10358.0, 10370.0, 10367.0, 10354.0, 10348.0, 10365.0, 10373.0, 10365.0, 10352.0, 10349.0, 10360.0, 10370.0, 10360.0, 10351.0, 10364.0, 10371.0, 10359.0, 10349.0, 10348.0, 10352.0, 10349.0, 10350.0, 10344.0, 10344.0, 10349.0, 10363.0, 10364.0, 10357.0, 10358.0, 10366.0, 10402.0, 10401.0, 10365.0, 10342.0, 10338.0, 10335.0, 10360.0, 10355.0, 10345.0, 10336.0, 10330.0, 10333.0, 10349.0, 10354.0, 10351.0, 10348.0, 10361.0, 10360.0, 10366.0, 10365.0, 10363.0, 10367.0, 10363.0, 10354.0, 10347.0, 10359.0, 10371.0, 10355.0, 10338.0, 10329.0, 10342.0, 10336.0, 10344.0, 10342.0, 10348.0, 10346.0, 10347.0, 10356.0, 10360.0, 10354.0, 10361.0, 10348.0, 10352.0, 10350.0, 10344.0, 10355.0, 10361.0, 10348.0, 10345.0, 10334.0, 10343.0, 10356.0, 10335.0, 10322.0, 10315.0, 10309.0, 10325.0, 10345.0, 10339.0, 10326.0, 10325.0, 10320.0, 10324.0, 10316.0, 10310.0, 10307.0, 10306.0, 10306.0, 10319.0, 10326.0, 10333.0, 10331.0, 10327.0, 10330.0, 10338.0, 10341.0, 10345.0, 10344.0, 10340.0, 10335.0, 10333.0, 10338.0, 10350.0, 10355.0, 10351.0, 10338.0, 10337.0, 10338.0, 10330.0, 10346.0, 10346.0, 10350.0, 10356.0, 10350.0, 10347.0, 10336.0, 10342.0, 10326.0, 10318.0, 10317.0, 10330.0, 10329.0, 10321.0, 10312.0],
      "WindowWidth": [22764.0, 22654.0, 22580.0, 22468.0, 22373.0, 22369.0, 22377.0, 22490.0, 22551.0, 22450.0, 22366.0, 22309.0, 22298.0, 22217.0, 22180.0, 22187.0, 22208.0, 22241.0, 22330.0, 22344.0, 22350.0, 22361.0, 22370.0, 22396.0, 22421.0, 22456.0, 22443.0, 22408.0, 22356.0, 22345.0, 22357.0, 22323.0, 22289.0, 22297.0, 22275.0, 22279.0, 22309.0, 22336.0, 22329.0, 22349.0, 22351.0, 22376.0, 22385.0, 22391.0, 22390.0, 22392.0, 22364.0, 22361.0, 22387.0, 22399.0, 22401.0, 22374.0, 22336.0, 22315.0, 22310.0, 22330.0, 22327.0, 22356.0, 22351.0, 22322.0, 22312.0, 22343.0, 22362.0, 22348.0, 22315.0, 22307.0, 22336.0, 22352.0, 22336.0, 22319.0, 22341.0, 22357.0, 22331.0, 22307.0, 22304.0, 22315.0, 22312.0, 22309.0, 22297.0, 22298.0, 22306.0, 22340.0, 22348.0, 22329.0, 22330.0, 22354.0, 22428.0, 22428.0, 22348.0, 22290.0, 22284.0, 22274.0, 22328.0, 22321.0, 22297.0, 22275.0, 22265.0, 22269.0, 22306.0, 22322.0, 22311.0, 22307.0, 22335.0, 22333.0, 22340.0, 22340.0, 22339.0, 22347.0, 22342.0, 22321.0, 22306.0, 22330.0, 22353.0, 22322.0, 22285.0, 22261.0, 22289.0, 22283.0, 22293.0, 22293.0, 22306.0, 22300.0, 22304.0, 22322.0, 22332.0, 22318.0, 22333.0, 22307.0, 22314.0, 22310.0, 22298.0, 22317.0, 22334.0, 22307.0, 22298.0, 22279.0, 22292.0, 22317.0, 22279.0, 22244.0, 22230.0, 22219.0, 22258.0, 22294.0, 22282.0, 22253.0, 22251.0, 22241.0, 22248.0, 22234.0, 22215.0, 22210.0, 22212.0, 22213.0, 22237.0, 22260.0, 22268.0, 22268.0, 22264.0, 22265.0, 22284.0, 22290.0, 22298.0, 22299.0, 22287.0, 22277.0, 22273.0, 22282.0, 22313.0, 22320.0, 22310.0, 22285.0, 22279.0, 22284.0, 22270.0, 22301.0, 22308.0, 22313.0, 22326.0, 22315.0, 22306.0, 22281.0, 22288.0, 22258.0, 22242.0, 22241.0, 22272.0, 22269.0, 22251.0, 22230.0]
    },
    "slices": {}
  }
}