{
  "AcquisitionMatrixPE": 104,
  "AcquisitionNumber": 1,
  "AcquisitionTime": "17:50:54.717500",
  "BandwidthPerPixelPhaseEncode": 17.17,
  "BaseResolution": 104,
  "BodyPartExamined": "BRAIN",
  "CoilString": "HC1-7;NC1_2",
  "ConsistencyInfo": "N4_VE11C_LATEST_20160120",
  "ConversionSoftware": "dcm2niix",
  "ConversionSoftwareVersion": "v1.0.20190902",
  "DerivedVendorReportedEchoSpacing": 0.000560011,
  "DeviceSerialNumber": "167006",
  "DwellTime": 2.1e-06,
  "EchoTime": 0.037,
  "EchoTrainLength": 104,
  "EffectiveEchoSpacing": 0.000560011,
  "FlipAngle": 52,
  "ImageComments": "Unaliased_MB4_PE3_LB",
  "ImageOrientationPatientDICOM": [0.994665, 0.0902866, 0.0499066, -0.0646708, 0.922632, -0.380221],
  "ImageType": [
    "ORIGINAL",
    "PRIMARY",
    "M",
    "MB",
    "ND",
    "MOSAIC"
],
  "ImagingFrequency": 123.259,
  "InPlanePhaseEncodingDirectionDICOM": "COL",
  "InstitutionAddress": "Chemin_Queen-Mary_4565_Montreal_District_CA_H3W_1W5",
  "InstitutionName": "IUGM",
  "InstitutionalDepartmentName": "Department",
  "MRAcquisitionType": "2D",
  "MagneticFieldStrength": 3,
  "Manufacturer": "Siemens",
  "ManufacturersModelName": "Prisma_fit",
  "Modality": "MR",
  "MultibandAccelerationFactor": 4,
  "PartialFourier": 1,
  "PatientPosition": "HFS",
  "PercentPhaseFOV": 100,
  "PhaseEncodingDirection": "j",
  "PhaseEncodingSteps": 104,
  "PhaseResolution": 1,
  "PixelBandwidth": 2290,
  "ProcedureStepDescription": "memory_things",
  "ProtocolName": "func_task-things_run-3",
  "PulseSequenceDetails": "%CustomerSeq%_cmrr_mbep2d_bold",
  "ReceiveCoilActiveElements": "HC1-7;NC1,2",
  "ReceiveCoilName": "HeadNeck_64",
  "ReconMatrixPE": 104,
  "RepetitionTime": 1.49,
  "SAR": 0.0404895,
  "ScanOptions": "FS",
  "ScanningSequence": "EP",
  "SequenceName": "epfid2d1_104",
  "SequenceVariant": "SK_SS",
  "SeriesDescription": "func_task-things_run-3",
  "SeriesNumber": 16,
  "ShimSetting": [634, -7208, -8828, 661, 69, 8, 23, 0],
  "SliceThickness": 2,
  "SliceTiming": [0, 0.7825, 0.0975, 0.88, 0.195, 0.9775, 0.2925, 1.0775, 0.39, 1.175, 0.4875, 1.2725, 0.5875, 1.37, 0.685, 0, 0.7825, 0.0975, 0.88, 0.195, 0.9775, 0.2925, 1.0775, 0.39, 1.175, 0.4875, 1.2725, 0.5875, 1.37, 0.685, 0, 0.7825, 0.0975, 0.88, 0.195, 0.9775, 0.2925, 1.0775, 0.39, 1.175, 0.4875, 1.2725, 0.5875, 1.37, 0.685, 0, 0.7825, 0.0975, 0.88, 0.195, 0.9775, 0.2925, 1.0775, 0.39, 1.175, 0.4875, 1.2725, 0.5875, 1.37, 0.685],
  "SoftwareVersions": "syngo_MR_E11",
  "SpacingBetweenSlices": 2,
  "StationName": "MRC35049",
  "TaskName": "things",
  "TotalReadoutTime": 0.0576811,
  "TxRefAmp": 254.624,
  "WipMemBlock": "c48bec81-f4ef-48e7-b863-dad640d30329||Sequence: R016 ve11c/master r/e634e98; Dec 19 2017 11:00:25 by eja",
  "dcmmeta_affine": [
    [-1.989329218864441, -0.12934152781963348, 0.1607486456632614, 108.52136993408203],
    [-0.18057319521903992, 1.8452634811401367, -0.7499305605888367, -48.36959457397461],
    [0.09981322288513184, 0.760442852973938, 1.8470960855484009, -68.98951721191406],
    [0.0, 0.0, 0.0, 1.0]
],
  "dcmmeta_reorient_transform": [
    [0.0, -1.0, 0.0, 103.0],
    [1.0, 0.0, 0.0, 0.0],
    [0.0, 0.0, 1.0, 0.0],
    [0.0, 0.0, 0.0, 1.0]
],
  "dcmmeta_shape": [104, 104, 60, 190],
  "dcmmeta_slice_dim": 2,
  "dcmmeta_version": 0.6,
  "global": {
    "const": {
      "AcquisitionMatrix": [104, 0, 0, 104],
      "AngioFlag": "N",
      "BitsAllocated": 16,
      "BitsStored": 16,
      "BodyPartExamined": "BRAIN",
      "Columns": 832,
      "EchoNumbers": 1,
      "EchoTime": 37.0,
      "EchoTrainLength": 104,
      "FlipAngle": 52.0,
      "HighBit": 15,
      "ImageOrientationPatient": [0.99466459675489, 0.09028659998256, 0.04990661104529, -0.0646707673439, 0.92263176252258, -0.3802214126475],
      "ImagePositionPatient": [-772.23469812309, -879.09711477469, 249.80526759414],
      "ImageType": [
        "ORIGINAL",
        "PRIMARY",
        "M",
        "MB",
        "ND",
        "MOSAIC"
],
      "ImagedNucleus": "1H",
      "ImagingFrequency": 123.25897,
      "InPlanePhaseEncodingDirection": "COL",
      "MRAcquisitionType": "2D",
      "MagneticFieldStrength": 3.0,
      "Manufacturer": "SIEMENS",
      "ManufacturerModelName": "Prisma_fit",
      "Modality": "MR",
      "NumberOfAverages": 1.0,
      "NumberOfPhaseEncodingSteps": 104,
      "PercentPhaseFieldOfView": 100.0,
      "PercentSampling": 100.0,
      "PerformedProcedureStepStartTime": "170508.628000",
      "PhotometricInterpretation": "MONOCHROME2",
      "PixelBandwidth": 2290.0,
      "PixelRepresentation": 0,
      "PixelSpacing": [2.0, 2.0],
      "ProtocolName": "func_task-things_run-3",
      "RepetitionTime": 1490.0,
      "Rows": 832,
      "SAR": 0.04048949470707,
      "SamplesPerPixel": 1,
      "ScanOptions": "FS",
      "ScanningSequence": "EP",
      "SequenceName": "epfid2d1_104",
      "SequenceVariant": [
        "SK",
        "SS"
],
      "SeriesDescription": "func_task-things_run-3",
      "SeriesNumber": 16,
      "SeriesTime": "175218.512000",
      "SliceLocation": -36.855885303561,
      "SliceThickness": 2.0,
      "SmallestImagePixelValue": 0,
      "SoftwareVersions": "syngo MR E11",
      "SpacingBetweenSlices": 1.999999959038,
      "SpecificCharacterSet": "ISO_IR 100",
      "StudyID": "1",
      "StudyTime": "170508.559000",
      "TransmitCoilName": "Body",
      "VariableFlipAngleFlag": "N",
      "WindowCenterWidthExplanation": "Algo1",
      "dBdt": 0.0},
    "slices": {}
  },
  "time": {
    "samples": {
      "AcquisitionNumber": [1, 2, 3, 4, 5, 6, 7, 8, 9, 10, 11, 12, 13, 14, 15, 16, 17, 18, 19, 20, 21, 22, 23, 24, 25, 26, 27, 28, 29, 30, 31, 32, 33, 34, 35, 36, 37, 38, 39, 40, 41, 42, 43, 44, 45, 46, 47, 48, 49, 50, 51, 52, 53, 54, 55, 56, 57, 58, 59, 60, 61, 62, 63, 64, 65, 66, 67, 68, 69, 70, 71, 72, 73, 74, 75, 76, 77, 78, 79, 80, 81, 82, 83, 84, 85, 86, 87, 88, 89, 90, 91, 92, 93, 94, 95, 96, 97, 98, 99, 100, 101, 102, 103, 104, 105, 106, 107, 108, 109, 110, 111, 112, 113, 114, 115, 116, 117, 118, 119, 120, 121, 122, 123, 124, 125, 126, 127, 128, 129, 130, 131, 132, 133, 134, 135, 136, 137, 138, 139, 140, 141, 142, 143, 144, 145, 146, 147, 148, 149, 150, 151, 152, 153, 154, 155, 156, 157, 158, 159, 160, 161, 162, 163, 164, 165, 166, 167, 168, 169, 170, 171, 172, 173, 174, 175, 176, 177, 178, 179, 180, 181, 182, 183, 184, 185, 186, 187, 188, 189, 190],
      "AcquisitionTime": ["175054.717500", "175056.207500", "175057.697500", "175059.187500", "175100.677500", "175102.167500", "175103.657500", "175105.147500", "175106.637500", "175108.127500", "175109.617500", "175111.107500", "175112.597500", "175114.087500", "175115.577500", "175117.067500", "175118.557500", "175120.047500", "175121.537500", "175123.027500", "175124.517500", "175126.007500", "175127.497500", "175128.987500", "175130.477500", "175131.967500", "175133.457500", "175134.947500", "175136.437500", "175137.927500", "175139.417500", "175140.907500", "175142.397500", "175143.887500", "175145.377500", "175146.867500", "175148.357500", "175149.847500", "175151.337500", "175152.827500", "175154.317500", "175155.807500", "175157.297500", "175158.787500", "175200.277500", "175201.767500", "175203.257500", "175204.747500", "175206.237500", "175207.727500", "175209.217500", "175210.707500", "175212.197500", "175213.687500", "175215.177500", "175216.667500", "175218.157500", "175219.647500", "175221.137500", "175222.627500", "175224.117500", "175225.607500", "175227.097500", "175228.587500", "175230.077500", "175231.567500", "175233.057500", "175234.547500", "175236.037500", "175237.527500", "175239.017500", "175240.507500", "175241.997500", "175243.487500", "175244.977500", "175246.467500", "175247.957500", "175249.447500", "175250.937500", "175252.427500", "175253.917500", "175255.407500", "175256.897500", "175258.387500", "175259.877500", "175301.367500", "175302.857500", "175304.347500", "175305.837500", "175307.327500", "175308.817500", "175310.307500", "175311.797500", "175313.287500", "175314.777500", "175316.267500", "175317.757500", "175319.247500", "175320.737500", "175322.227500", "175323.717500", "175325.207500", "175326.697500", "175328.187500", "175329.677500", "175331.167500", "175332.657500", "175334.147500", "175335.637500", "175337.127500", "175338.617500", "175340.107500", "175341.597500", "175343.087500", "175344.577500", "175346.067500", "175347.557500", "175349.047500", "175350.537500", "175352.027500", "175353.517500", "175355.007500", "175356.497500", "175357.987500", "175359.477500", "175400.967500", "175402.457500", "175403.947500", "175405.437500", "175406.927500", "175408.417500", "175409.907500", "175411.397500", "175412.887500", "175414.377500", "175415.867500", "175417.357500", "175418.847500", "175420.337500", "175421.827500", "175423.317500", "175424.807500", "175426.297500", "175427.787500", "175429.277500", "175430.767500", "175432.257500", "175433.747500", "175435.237500", "175436.727500", "175438.217500", "175439.707500", "175441.197500", "175442.687500", "175444.177500", "175445.667500", "175447.157500", "175448.647500", "175450.137500", "175451.627500", "175453.117500", "175454.607500", "175456.097500", "175457.587500", "175459.077500", "175500.567500", "175502.057500", "175503.547500", "175505.037500", "175506.527500", "175508.017500", "175509.507500", "175510.997500", "175512.487500", "175513.977500", "175515.467500", "175516.957500", "175518.447500", "175519.937500", "175521.427500", "175522.917500", "175524.407500", "175525.897500", "175527.387500", "175528.877500", "175530.367500", "175531.857500", "175533.347500", "175534.837500", "175536.327500"],
      "ContentTime": ["175218.515000", "175218.519000", "175218.523000", "175218.526000", "175218.530000", "175218.540000", "175218.543000", "175218.547000", "175218.550000", "175218.554000", "175218.557000", "175218.560000", "175218.564000", "175218.567000", "175218.571000", "175218.574000", "175218.578000", "175218.581000", "175218.584000", "175218.588000", "175218.591000", "175218.595000", "175218.598000", "175218.601000", "175218.605000", "175218.608000", "175218.612000", "175218.615000", "175218.619000", "175218.622000", "175238.480000", "175238.484000", "175238.488000", "175238.491000", "175238.494000", "175238.498000", "175238.501000", "175238.504000", "175238.508000", "175238.511000", "175238.515000", "175238.518000", "175238.521000", "175238.525000", "175238.528000", "175238.532000", "175238.535000", "175238.538000", "175238.542000", "175238.545000", "175258.479000", "175258.483000", "175258.487000", "175258.490000", "175258.493000", "175258.497000", "175258.500000", "175258.504000", "175258.507000", "175258.521000", "175258.537000", "175258.541000", "175258.544000", "175258.548000", "175258.551000", "175258.555000", "175258.558000", "175258.561000", "175258.565000", "175258.568000", "175318.479000", "175318.483000", "175318.487000", "175318.490000", "175318.493000", "175318.497000", "175318.500000", "175318.504000", "175318.507000", "175318.510000", "175318.514000", "175318.518000", "175318.521000", "175318.531000", "175318.534000", "175318.538000", "175318.541000", "175318.544000", "175318.548000", "175318.551000", "175358.480000", "175358.484000", "175358.488000", "175358.491000", "175358.494000", "175358.498000", "175358.501000", "175358.505000", "175358.508000", "175358.511000", "175358.515000", "175358.518000", "175358.522000", "175358.525000", "175358.529000", "175358.532000", "175358.535000", "175358.539000", "175358.542000", "175358.546000", "175358.549000", "175358.553000", "175358.556000", "175358.560000", "175358.563000", "175358.566000", "175358.570000", "175358.573000", "175358.577000", "175358.580000", "175358.584000", "175358.587000", "175358.591000", "175438.480000", "175438.484000", "175438.488000", "175438.491000", "175438.495000", "175438.498000", "175438.501000", "175438.505000", "175438.508000", "175438.512000", "175438.515000", "175438.518000", "175438.522000", "175438.525000", "175438.529000", "175438.532000", "175438.536000", "175438.540000", "175438.543000", "175438.547000", "175438.550000", "175438.554000", "175438.557000", "175438.561000", "175438.565000", "175438.568000", "175518.480000", "175518.483000", "175518.487000", "175518.490000", "175518.494000", "175518.497000", "175518.501000", "175518.504000", "175518.508000", "175518.511000", "175518.515000", "175518.529000", "175518.533000", "175518.536000", "175518.539000", "175518.543000", "175518.546000", "175518.550000", "175518.553000", "175518.556000", "175518.560000", "175518.563000", "175518.567000", "175518.570000", "175518.574000", "175518.577000", "175518.580000", "175538.208000", "175538.212000", "175538.215000", "175538.219000", "175538.222000", "175538.225000", "175538.229000", "175538.232000", "175538.236000", "175538.239000", "175538.243000", "175538.246000", "175538.250000", "175538.253000"],
      "InstanceCreationTime": ["175218.515000", "175218.519000", "175218.523000", "175218.526000", "175218.530000", "175218.540000", "175218.543000", "175218.547000", "175218.550000", "175218.554000", "175218.557000", "175218.560000", "175218.564000", "175218.567000", "175218.571000", "175218.574000", "175218.578000", "175218.581000", "175218.584000", "175218.588000", "175218.591000", "175218.595000", "175218.598000", "175218.601000", "175218.605000", "175218.608000", "175218.612000", "175218.615000", "175218.619000", "175218.622000", "175238.480000", "175238.484000", "175238.488000", "175238.491000", "175238.494000", "175238.498000", "175238.501000", "175238.504000", "175238.508000", "175238.511000", "175238.515000", "175238.518000", "175238.521000", "175238.525000", "175238.528000", "175238.532000", "175238.535000", "175238.538000", "175238.542000", "175238.545000", "175258.479000", "175258.483000", "175258.487000", "175258.490000", "175258.493000", "175258.497000", "175258.500000", "175258.504000", "175258.507000", "175258.521000", "175258.537000", "175258.541000", "175258.544000", "175258.548000", "175258.551000", "175258.555000", "175258.558000", "175258.561000", "175258.565000", "175258.568000", "175318.479000", "175318.483000", "175318.487000", "175318.490000", "175318.493000", "175318.497000", "175318.500000", "175318.504000", "175318.507000", "175318.510000", "175318.514000", "175318.518000", "175318.521000", "175318.531000", "175318.534000", "175318.538000", "175318.541000", "175318.544000", "175318.548000", "175318.551000", "175358.480000", "175358.484000", "175358.488000", "175358.491000", "175358.494000", "175358.498000", "175358.501000", "175358.505000", "175358.508000", "175358.511000", "175358.515000", "175358.518000", "175358.522000", "175358.525000", "175358.529000", "175358.532000", "175358.535000", "175358.539000", "175358.542000", "175358.546000", "175358.549000", "175358.553000", "175358.556000", "175358.560000", "175358.563000", "175358.566000", "175358.570000", "175358.573000", "175358.577000", "175358.580000", "175358.584000", "175358.587000", "175358.591000", "175438.480000", "175438.484000", "175438.488000", "175438.491000", "175438.495000", "175438.498000", "175438.501000", "175438.505000", "175438.508000", "175438.512000", "175438.515000", "175438.518000", "175438.522000", "175438.525000", "175438.529000", "175438.532000", "175438.536000", "175438.540000", "175438.543000", "175438.547000", "175438.550000", "175438.554000", "175438.557000", "175438.561000", "175438.565000", "175438.568000", "175518.480000", "175518.483000", "175518.487000", "175518.490000", "175518.494000", "175518.497000", "175518.501000", "175518.504000", "175518.508000", "175518.511000", "175518.515000", "175518.529000", "175518.533000", "175518.536000", "175518.539000", "175518.543000", "175518.546000", "175518.550000", "175518.553000", "175518.556000", "175518.560000", "175518.563000", "175518.567000", "175518.570000", "175518.574000", "175518.577000", "175518.580000", "175538.208000", "175538.212000", "175538.215000", "175538.219000", "175538.222000", "175538.225000", "175538.229000", "175538.232000", "175538.236000", "175538.239000", "175538.243000", "175538.246000", "175538.250000", "175538.253000"],
      "InstanceNumber": [1, 2, 3, 4, 5, 6, 7, 8, 9, 10, 11, 12, 13, 14, 15, 16, 17, 18, 19, 20, 21, 22, 23, 24, 25, 26, 27, 28, 29, 30, 31, 32, 33, 34, 35, 36, 37, 38, 39, 40, 41, 42, 43, 44, 45, 46, 47, 48, 49, 50, 51, 52, 53, 54, 55, 56, 57, 58, 59, 60, 61, 62, 63, 64, 65, 66, 67, 68, 69, 70, 71, 72, 73, 74, 75, 76, 77, 78, 79, 80, 81, 82, 83, 84, 85, 86, 87, 88, 89, 90, 91, 92, 93, 94, 95, 96, 97, 98, 99, 100, 101, 102, 103, 104, 105, 106, 107, 108, 109, 110, 111, 112, 113, 114, 115, 116, 117, 118, 119, 120, 121, 122, 123, 124, 125, 126, 127, 128, 129, 130, 131, 132, 133, 134, 135, 136, 137, 138, 139, 140, 141, 142, 143, 144, 145, 146, 147, 148, 149, 150, 151, 152, 153, 154, 155, 156, 157, 158, 159, 160, 161, 162, 163, 164, 165, 166, 167, 168, 169, 170, 171, 172, 173, 174, 175, 176, 177, 178, 179, 180, 181, 182, 183, 184, 185, 186, 187, 188, 189, 190],
      "LargestImagePixelValue": [47895, 45830, 46606, 45877, 45615, 44744, 44292, 44132, 43736, 43303, 44601, 44978, 46278, 45298, 44796, 44582, 44585, 44683, 44943, 47101, 47873, 46084, 47520, 46192, 45194, 44424, 45169, 45166, 43711, 44288, 43502, 45675, 45079, 44480, 44013, 43446, 48325, 43722, 43245, 43289, 44157, 43371, 43601, 43239, 43381, 43353, 43590, 43271, 43595, 43415, 46426, 43800, 43804, 43129, 46109, 43421, 43405, 42986, 47375, 44266, 44459, 43737, 44358, 44287, 43839, 43932, 43171, 43710, 43939, 44575, 43992, 43985, 44159, 44894, 44958, 43700, 44252, 43162, 43140, 43483, 43172, 43482, 43968, 43949, 44346, 44911, 44746, 44778, 43807, 45780, 44562, 43952, 43118, 44024, 44087, 42904, 43183, 44573, 43702, 43445, 45117, 44079, 43999, 44629, 43459, 43440, 43716, 43967, 43059, 45541, 43079, 43435, 43809, 44184, 43450, 43921, 43769, 43403, 44957, 46131, 44897, 44703, 44960, 44255, 44070, 44076, 43857, 43948, 44226, 42903, 43833, 44504, 43124, 43438, 43567, 49069, 44061, 44099, 44212, 44499, 44023, 44012, 44177, 43199, 43773, 42368, 42700, 41278, 42817, 41845, 41722, 42070, 40802, 42778, 41496, 43042, 49069, 41066, 42396, 40270, 42653, 41799, 41588, 42207, 40273, 43513, 42551, 42159, 41332, 40745, 43520, 42128, 42827, 41913, 41955, 48396, 42916, 43336, 41113, 42164, 43220, 41889, 42681, 41672, 41861, 42898, 42732, 42529, 42462, 43008],
      "WindowCenter": [10655.0, 10610.0, 10634.0, 10615.0, 10584.0, 10554.0, 10545.0, 10552.0, 10573.0, 10602.0, 10613.0, 10598.0, 10586.0, 10564.0, 10560.0, 10554.0, 10555.0, 10554.0, 10544.0, 10566.0, 10587.0, 10569.0, 10590.0, 10584.0, 10589.0, 10588.0, 10577.0, 10584.0, 10593.0, 10589.0, 10585.0, 10623.0, 10616.0, 10575.0, 10563.0, 10549.0, 10598.0, 10581.0, 10589.0, 10590.0, 10596.0, 10580.0, 10569.0, 10569.0, 10585.0, 10596.0, 10595.0, 10588.0, 10587.0, 10593.0, 10615.0, 10593.0, 10602.0, 10598.0, 10623.0, 10597.0, 10597.0, 10592.0, 10660.0, 10629.0, 10633.0, 10629.0, 10646.0, 10638.0, 10613.0, 10605.0, 10592.0, 10584.0, 10576.0, 10573.0, 10567.0, 10579.0, 10589.0, 10620.0, 10622.0, 10602.0, 10598.0, 10588.0, 10594.0, 10595.0, 10588.0, 10601.0, 10610.0, 10603.0, 10608.0, 10612.0, 10613.0, 10629.0, 10613.0, 10622.0, 10590.0, 10592.0, 10611.0, 10641.0, 10619.0, 10590.0, 10596.0, 10605.0, 10581.0, 10588.0, 10621.0, 10610.0, 10620.0, 10624.0, 10611.0, 10604.0, 10617.0, 10609.0, 10604.0, 10626.0, 10590.0, 10593.0, 10608.0, 10625.0, 10629.0, 10628.0, 10605.0, 10593.0, 10605.0, 10611.0, 10610.0, 10624.0, 10631.0, 10600.0, 10591.0, 10588.0, 10582.0, 10590.0, 10599.0, 10592.0, 10601.0, 10621.0, 10622.0, 10623.0, 10605.0, 10636.0, 10589.0, 10590.0, 10607.0, 10638.0, 10636.0, 10619.0, 10610.0, 10578.0, 10589.0, 10573.0, 10605.0, 10602.0, 10610.0, 10589.0, 10589.0, 10595.0, 10602.0, 10616.0, 10599.0, 10622.0, 10658.0, 10582.0, 10594.0, 10580.0, 10612.0, 10599.0, 10587.0, 10592.0, 10580.0, 10621.0, 10614.0, 10603.0, 10598.0, 10587.0, 10604.0, 10583.0, 10588.0, 10584.0, 10604.0, 10657.0, 10603.0, 10591.0, 10567.0, 10585.0, 10600.0, 10593.0, 10602.0, 10608.0, 10619.0, 10608.0, 10588.0, 10558.0, 10556.0, 10564.0],
      "WindowWidth": [22680.0, 22566.0, 22615.0, 22564.0, 22483.0, 22412.0, 22394.0, 22410.0, 22463.0, 22540.0, 22561.0, 22520.0, 22487.0, 22433.0, 22426.0, 22417.0, 22420.0, 22415.0, 22391.0, 22437.0, 22490.0, 22451.0, 22496.0, 22487.0, 22499.0, 22508.0, 22470.0, 22487.0, 22520.0, 22504.0, 22495.0, 22580.0, 22576.0, 22467.0, 22439.0, 22408.0, 22518.0, 22488.0, 22513.0, 22511.0, 22530.0, 22490.0, 22460.0, 22467.0, 22503.0, 22529.0, 22526.0, 22509.0, 22505.0, 22517.0, 22571.0, 22517.0, 22539.0, 22534.0, 22588.0, 22530.0, 22532.0, 22523.0, 22675.0, 22605.0, 22612.0, 22604.0, 22645.0, 22629.0, 22566.0, 22544.0, 22516.0, 22495.0, 22476.0, 22465.0, 22455.0, 22482.0, 22507.0, 22579.0, 22584.0, 22538.0, 22528.0, 22511.0, 22521.0, 22527.0, 22508.0, 22538.0, 22564.0, 22547.0, 22552.0, 22557.0, 22559.0, 22601.0, 22570.0, 22584.0, 22505.0, 22514.0, 22561.0, 22626.0, 22574.0, 22509.0, 22527.0, 22542.0, 22485.0, 22502.0, 22590.0, 22557.0, 22585.0, 22591.0, 22560.0, 22541.0, 22571.0, 22552.0, 22546.0, 22596.0, 22514.0, 22518.0, 22553.0, 22592.0, 22606.0, 22599.0, 22545.0, 22516.0, 22543.0, 22548.0, 22550.0, 22591.0, 22607.0, 22528.0, 22506.0, 22496.0, 22487.0, 22509.0, 22528.0, 22520.0, 22534.0, 22578.0, 22584.0, 22587.0, 22541.0, 22614.0, 22505.0, 22505.0, 22548.0, 22624.0, 22612.0, 22573.0, 22554.0, 22478.0, 22509.0, 22482.0, 22551.0, 22552.0, 22560.0, 22515.0, 22515.0, 22524.0, 22549.0, 22572.0, 22535.0, 22588.0, 22664.0, 22496.0, 22522.0, 22496.0, 22573.0, 22538.0, 22504.0, 22517.0, 22499.0, 22581.0, 22564.0, 22540.0, 22533.0, 22512.0, 22548.0, 22490.0, 22503.0, 22497.0, 22549.0, 22661.0, 22542.0, 22511.0, 22465.0, 22509.0, 22544.0, 22519.0, 22541.0, 22559.0, 22594.0, 22551.0, 22510.0, 22429.0, 22430.0, 22460.0]
    },
    "slices": {}
  }
}