{
  "AcquisitionMatrixPE": 104,
  "AcquisitionNumber": 1,
  "AcquisitionTime": "17:45:47.322500",
  "BandwidthPerPixelPhaseEncode": 17.17,
  "BaseResolution": 104,
  "BodyPartExamined": "BRAIN",
  "CoilString": "HC1-7;NC1_2",
  "ConsistencyInfo": "N4_VE11C_LATEST_20160120",
  "ConversionSoftware": "dcm2niix",
  "ConversionSoftwareVersion": "v1.0.20190902",
  "DerivedVendorReportedEchoSpacing": 0.000560011,
  "DeviceSerialNumber": "167006",
  "DwellTime": 2.1e-06,
  "EchoTime": 0.037,
  "EchoTrainLength": 104,
  "EffectiveEchoSpacing": 0.000560011,
  "FlipAngle": 52,
  "ImageComments": "Unaliased_MB4_PE3_LB",
  "ImageOrientationPatientDICOM": [0.994665, 0.0902866, 0.0499066, -0.0646708, 0.922632, -0.380221],
  "ImageType": [
    "ORIGINAL",
    "PRIMARY",
    "P",
    "MB",
    "ND",
    "MOSAIC"
],
  "ImagingFrequency": 123.259,
  "InPlanePhaseEncodingDirectionDICOM": "COL",
  "InstitutionAddress": "Chemin_Queen-Mary_4565_Montreal_District_CA_H3W_1W5",
  "InstitutionName": "IUGM",
  "InstitutionalDepartmentName": "Department",
  "MRAcquisitionType": "2D",
  "MagneticFieldStrength": 3,
  "Manufacturer": "Siemens",
  "ManufacturersModelName": "Prisma_fit",
  "Modality": "MR",
  "MultibandAccelerationFactor": 4,
  "PartialFourier": 1,
  "PatientPosition": "HFS",
  "PercentPhaseFOV": 100,
  "PhaseEncodingDirection": "j",
  "PhaseEncodingSteps": 104,
  "PhaseResolution": 1,
  "PixelBandwidth": 2290,
  "ProcedureStepDescription": "memory_things",
  "ProtocolName": "func_task-things_run-2",
  "PulseSequenceDetails": "%CustomerSeq%_cmrr_mbep2d_bold",
  "ReceiveCoilActiveElements": "HC1-7;NC1,2",
  "ReceiveCoilName": "HeadNeck_64",
  "ReconMatrixPE": 104,
  "RepetitionTime": 1.49,
  "SAR": 0.0404895,
  "ScanOptions": "FS",
  "ScanningSequence": "EP",
  "SequenceName": "epfid2d1_104",
  "SequenceVariant": "SK_SS",
  "SeriesDescription": "func_task-things_run-2",
  "SeriesNumber": 14,
  "ShimSetting": [634, -7208, -8828, 661, 69, 8, 23, 0],
  "SliceThickness": 2,
  "SliceTiming": [0, 0.7825, 0.0975, 0.88, 0.195, 0.98, 0.2925, 1.0775, 0.39, 1.175, 0.49, 1.2725, 0.5875, 1.37, 0.685, 0, 0.7825, 0.0975, 0.88, 0.195, 0.98, 0.2925, 1.0775, 0.39, 1.175, 0.49, 1.2725, 0.5875, 1.37, 0.685, 0, 0.7825, 0.0975, 0.88, 0.195, 0.98, 0.2925, 1.0775, 0.39, 1.175, 0.49, 1.2725, 0.5875, 1.37, 0.685, 0, 0.7825, 0.0975, 0.88, 0.195, 0.98, 0.2925, 1.0775, 0.39, 1.175, 0.49, 1.2725, 0.5875, 1.37, 0.685],
  "SoftwareVersions": "syngo_MR_E11",
  "SpacingBetweenSlices": 2,
  "StationName": "MRC35049",
  "TaskName": "things",
  "TotalReadoutTime": 0.0576811,
  "TxRefAmp": 254.624,
  "WipMemBlock": "1d186552-1df0-4d24-8786-4f618609d688||Sequence: R016 ve11c/master r/e634e98; Dec 19 2017 11:00:25 by eja",
  "dcmmeta_affine": [
    [-1.989329218864441, -0.12934152781963348, 0.1607486456632614, 108.52136993408203],
    [-0.18057319521903992, 1.8452634811401367, -0.7499305605888367, -48.36959457397461],
    [0.09981322288513184, 0.760442852973938, 1.8470960855484009, -68.98951721191406],
    [0.0, 0.0, 0.0, 1.0]
],
  "dcmmeta_reorient_transform": [
    [0.0, -1.0, 0.0, 103.0],
    [1.0, 0.0, 0.0, 0.0],
    [0.0, 0.0, 1.0, 0.0],
    [0.0, 0.0, 0.0, 1.0]
],
  "dcmmeta_shape": [104, 104, 60, 190],
  "dcmmeta_slice_dim": 2,
  "dcmmeta_version": 0.6,
  "global": {
    "const": {
      "AcquisitionMatrix": [104, 0, 0, 104],
      "AngioFlag": "N",
      "BitsAllocated": 16,
      "BitsStored": 16,
      "BodyPartExamined": "BRAIN",
      "Columns": 832,
      "EchoNumbers": 1,
      "EchoTime": 37.0,
      "EchoTrainLength": 104,
      "FlipAngle": 52.0,
      "HighBit": 15,
      "ImageOrientationPatient": [0.99466459675489, 0.09028659998256, 0.04990661104529, -0.0646707673439, 0.92263176252258, -0.3802214126475],
      "ImagePositionPatient": [-772.23469812309, -879.09711477469, 249.80526759414],
      "ImageType": [
        "ORIGINAL",
        "PRIMARY",
        "P",
        "MB",
        "ND",
        "MOSAIC"
],
      "ImagedNucleus": "1H",
      "ImagingFrequency": 123.258965,
      "InPlanePhaseEncodingDirection": "COL",
      "LargestImagePixelValue": 4095,
      "MRAcquisitionType": "2D",
      "MagneticFieldStrength": 3.0,
      "Manufacturer": "SIEMENS",
      "ManufacturerModelName": "Prisma_fit",
      "Modality": "MR",
      "NumberOfAverages": 1.0,
      "NumberOfPhaseEncodingSteps": 104,
      "PercentPhaseFieldOfView": 100.0,
      "PercentSampling": 100.0,
      "PerformedProcedureStepStartTime": "170508.628000",
      "PhotometricInterpretation": "MONOCHROME2",
      "PixelBandwidth": 2290.0,
      "PixelRepresentation": 0,
      "PixelSpacing": [2.0, 2.0],
      "ProtocolName": "func_task-things_run-2",
      "RepetitionTime": 1490.0,
      "RescaleIntercept": -4096.0,
      "RescaleSlope": 2.0,
      "RescaleType": "US",
      "Rows": 832,
      "SAR": 0.04048949470707,
      "SamplesPerPixel": 1,
      "ScanOptions": "FS",
      "ScanningSequence": "EP",
      "SequenceName": "epfid2d1_104",
      "SequenceVariant": [
        "SK",
        "SS"
],
      "SeriesDescription": "func_task-things_run-2",
      "SeriesNumber": 14,
      "SeriesTime": "174703.819000",
      "SliceLocation": -36.855885303561,
      "SliceThickness": 2.0,
      "SmallestImagePixelValue": 0,
      "SoftwareVersions": "syngo MR E11",
      "SpacingBetweenSlices": 1.999999959038,
      "SpecificCharacterSet": "ISO_IR 100",
      "StudyID": "1",
      "StudyTime": "170508.559000",
      "TransmitCoilName": "Body",
      "VariableFlipAngleFlag": "N",
      "WindowCenterWidthExplanation": "Algo1",
      "dBdt": 0.0},
    "slices": {}
  },
  "time": {
    "samples": {
      "AcquisitionNumber": [1, 2, 3, 4, 5, 6, 7, 8, 9, 10, 11, 12, 13, 14, 15, 16, 17, 18, 19, 20, 21, 22, 23, 24, 25, 26, 27, 28, 29, 30, 31, 32, 33, 34, 35, 36, 37, 38, 39, 40, 41, 42, 43, 44, 45, 46, 47, 48, 49, 50, 51, 52, 53, 54, 55, 56, 57, 58, 59, 60, 61, 62, 63, 64, 65, 66, 67, 68, 69, 70, 71, 72, 73, 74, 75, 76, 77, 78, 79, 80, 81, 82, 83, 84, 85, 86, 87, 88, 89, 90, 91, 92, 93, 94, 95, 96, 97, 98, 99, 100, 101, 102, 103, 104, 105, 106, 107, 108, 109, 110, 111, 112, 113, 114, 115, 116, 117, 118, 119, 120, 121, 122, 123, 124, 125, 126, 127, 128, 129, 130, 131, 132, 133, 134, 135, 136, 137, 138, 139, 140, 141, 142, 143, 144, 145, 146, 147, 148, 149, 150, 151, 152, 153, 154, 155, 156, 157, 158, 159, 160, 161, 162, 163, 164, 165, 166, 167, 168, 169, 170, 171, 172, 173, 174, 175, 176, 177, 178, 179, 180, 181, 182, 183, 184, 185, 186, 187, 188, 189, 190],
      "AcquisitionTime": ["174547.322500", "174548.812500", "174550.302500", "174551.792500", "174553.282500", "174554.772500", "174556.262500", "174557.752500", "174559.242500", "174600.732500", "174602.222500", "174603.712500", "174605.202500", "174606.692500", "174608.182500", "174609.672500", "174611.162500", "174612.652500", "174614.142500", "174615.632500", "174617.122500", "174618.612500", "174620.102500", "174621.592500", "174623.082500", "174624.572500", "174626.062500", "174627.552500", "174629.042500", "174630.532500", "174632.022500", "174633.512500", "174635.002500", "174636.492500", "174637.982500", "174639.472500", "174640.962500", "174642.452500", "174643.942500", "174645.432500", "174646.922500", "174648.412500", "174649.902500", "174651.392500", "174652.882500", "174654.372500", "174655.862500", "174657.352500", "174658.842500", "174700.332500", "174701.822500", "174703.312500", "174704.802500", "174706.292500", "174707.782500", "174709.272500", "174710.762500", "174712.252500", "174713.742500", "174715.232500", "174716.722500", "174718.212500", "174719.702500", "174721.192500", "174722.682500", "174724.172500", "174725.662500", "174727.152500", "174728.642500", "174730.132500", "174731.622500", "174733.112500", "174734.602500", "174736.092500", "174737.582500", "174739.072500", "174740.562500", "174742.052500", "174743.542500", "174745.032500", "174746.522500", "174748.012500", "174749.502500", "174750.992500", "174752.482500", "174753.972500", "174755.462500", "174756.952500", "174758.442500", "174759.932500", "174801.422500", "174802.912500", "174804.402500", "174805.892500", "174807.382500", "174808.872500", "174810.362500", "174811.852500", "174813.342500", "174814.832500", "174816.322500", "174817.812500", "174819.302500", "174820.792500", "174822.282500", "174823.772500", "174825.262500", "174826.752500", "174828.242500", "174829.732500", "174831.222500", "174832.712500", "174834.202500", "174835.692500", "174837.182500", "174838.672500", "174840.162500", "174841.652500", "174843.142500", "174844.632500", "174846.122500", "174847.612500", "174849.102500", "174850.592500", "174852.082500", "174853.572500", "174855.062500", "174856.552500", "174858.042500", "174859.532500", "174901.022500", "174902.512500", "174904.002500", "174905.492500", "174906.982500", "174908.472500", "174909.962500", "174911.452500", "174912.942500", "174914.432500", "174915.922500", "174917.412500", "174918.902500", "174920.392500", "174921.882500", "174923.372500", "174924.862500", "174926.352500", "174927.842500", "174929.332500", "174930.822500", "174932.312500", "174933.802500", "174935.292500", "174936.782500", "174938.272500", "174939.762500", "174941.252500", "174942.742500", "174944.232500", "174945.722500", "174947.212500", "174948.702500", "174950.192500", "174951.682500", "174953.172500", "174954.662500", "174956.152500", "174957.642500", "174959.132500", "175000.622500", "175002.112500", "175003.602500", "175005.092500", "175006.582500", "175008.072500", "175009.562500", "175011.052500", "175012.542500", "175014.032500", "175015.522500", "175017.012500", "175018.502500", "175019.992500", "175021.482500", "175022.972500", "175024.462500", "175025.952500", "175027.442500", "175028.932500"],
      "ContentTime": ["174703.822000", "174703.824000", "174703.827000", "174703.830000", "174703.832000", "174703.835000", "174703.837000", "174703.840000", "174703.842000", "174703.845000", "174703.847000", "174703.850000", "174703.853000", "174703.855000", "174703.858000", "174703.861000", "174703.863000", "174703.866000", "174703.868000", "174703.871000", "174703.873000", "174703.876000", "174723.779000", "174723.782000", "174723.784000", "174723.790000", "174723.793000", "174723.795000", "174723.798000", "174723.802000", "174723.804000", "174723.807000", "174723.809000", "174723.812000", "174723.815000", "174723.817000", "174723.820000", "174723.822000", "174723.825000", "174723.827000", "174723.830000", "174723.833000", "174723.835000", "174743.773000", "174743.776000", "174743.778000", "174743.781000", "174743.783000", "174743.786000", "174743.789000", "174743.791000", "174743.794000", "174743.796000", "174743.799000", "174743.802000", "174743.804000", "174743.807000", "174743.809000", "174743.812000", "174743.815000", "174743.817000", "174743.820000", "174743.822000", "174803.777000", "174803.779000", "174803.782000", "174803.785000", "174803.787000", "174803.790000", "174803.792000", "174803.795000", "174803.798000", "174803.800000", "174803.803000", "174803.805000", "174803.808000", "174803.810000", "174803.813000", "174803.815000", "174803.818000", "174803.821000", "174803.823000", "174803.826000", "174823.765000", "174823.768000", "174823.771000", "174823.773000", "174823.776000", "174823.779000", "174823.781000", "174823.784000", "174823.786000", "174823.789000", "174823.791000", "174823.794000", "174823.797000", "174823.799000", "174823.802000", "174823.804000", "174823.807000", "174823.809000", "174823.812000", "174823.815000", "174903.813000", "174903.816000", "174903.818000", "174903.821000", "174903.823000", "174903.826000", "174903.829000", "174903.831000", "174903.834000", "174903.836000", "174903.839000", "174903.842000", "174903.844000", "174903.847000", "174903.849000", "174903.852000", "174903.854000", "174903.857000", "174903.860000", "174903.862000", "174903.871000", "174903.874000", "174903.876000", "174903.879000", "174903.881000", "174903.884000", "174903.887000", "174903.889000", "174943.797000", "174943.800000", "174943.803000", "174943.805000", "174943.808000", "174943.811000", "174943.813000", "174943.816000", "174943.818000", "174943.821000", "174943.823000", "174943.826000", "174943.829000", "174943.831000", "174943.834000", "174943.836000", "174943.839000", "174943.841000", "174943.844000", "174943.847000", "174943.849000", "174943.852000", "174943.854000", "174943.857000", "174943.860000", "174943.862000", "174943.865000", "175023.794000", "175023.796000", "175023.799000", "175023.801000", "175023.804000", "175023.807000", "175023.809000", "175023.812000", "175023.814000", "175023.817000", "175023.820000", "175023.822000", "175023.825000", "175023.827000", "175023.830000", "175023.832000", "175023.835000", "175023.838000", "175023.840000", "175023.843000", "175023.845000", "175023.848000", "175023.850000", "175023.853000", "175023.856000", "175023.858000", "175023.861000", "175031.072000", "175031.075000", "175031.077000", "175031.080000", "175031.083000"],
      "InstanceCreationTime": ["174703.822000", "174703.824000", "174703.827000", "174703.830000", "174703.832000", "174703.835000", "174703.837000", "174703.840000", "174703.842000", "174703.845000", "174703.847000", "174703.850000", "174703.853000", "174703.855000", "174703.858000", "174703.861000", "174703.863000", "174703.866000", "174703.868000", "174703.871000", "174703.873000", "174703.876000", "174723.779000", "174723.782000", "174723.784000", "174723.790000", "174723.793000", "174723.795000", "174723.798000", "174723.802000", "174723.804000", "174723.807000", "174723.809000", "174723.812000", "174723.815000", "174723.817000", "174723.820000", "174723.822000", "174723.825000", "174723.827000", "174723.830000", "174723.833000", "174723.835000", "174743.773000", "174743.776000", "174743.778000", "174743.781000", "174743.783000", "174743.786000", "174743.789000", "174743.791000", "174743.794000", "174743.796000", "174743.799000", "174743.802000", "174743.804000", "174743.807000", "174743.809000", "174743.812000", "174743.815000", "174743.817000", "174743.820000", "174743.822000", "174803.777000", "174803.779000", "174803.782000", "174803.785000", "174803.787000", "174803.790000", "174803.792000", "174803.795000", "174803.798000", "174803.800000", "174803.803000", "174803.805000", "174803.808000", "174803.810000", "174803.813000", "174803.815000", "174803.818000", "174803.821000", "174803.823000", "174803.826000", "174823.765000", "174823.768000", "174823.771000", "174823.773000", "174823.776000", "174823.779000", "174823.781000", "174823.784000", "174823.786000", "174823.789000", "174823.791000", "174823.794000", "174823.797000", "174823.799000", "174823.802000", "174823.804000", "174823.807000", "174823.809000", "174823.812000", "174823.815000", "174903.813000", "174903.816000", "174903.818000", "174903.821000", "174903.823000", "174903.826000", "174903.829000", "174903.831000", "174903.834000", "174903.836000", "174903.839000", "174903.842000", "174903.844000", "174903.847000", "174903.849000", "174903.852000", "174903.854000", "174903.857000", "174903.860000", "174903.862000", "174903.871000", "174903.874000", "174903.876000", "174903.879000", "174903.881000", "174903.884000", "174903.887000", "174903.889000", "174943.797000", "174943.800000", "174943.803000", "174943.805000", "174943.808000", "174943.811000", "174943.813000", "174943.816000", "174943.818000", "174943.821000", "174943.823000", "174943.826000", "174943.829000", "174943.831000", "174943.834000", "174943.836000", "174943.839000", "174943.841000", "174943.844000", "174943.847000", "174943.849000", "174943.852000", "174943.854000", "174943.857000", "174943.860000", "174943.862000", "174943.865000", "175023.794000", "175023.796000", "175023.799000", "175023.801000", "175023.804000", "175023.807000", "175023.809000", "175023.812000", "175023.814000", "175023.817000", "175023.820000", "175023.822000", "175023.825000", "175023.827000", "175023.830000", "175023.832000", "175023.835000", "175023.838000", "175023.840000", "175023.843000", "175023.845000", "175023.848000", "175023.850000", "175023.853000", "175023.856000", "175023.858000", "175023.861000", "175031.072000", "175031.075000", "175031.077000", "175031.080000", "175031.083000"],
      "InstanceNumber": [1, 2, 3, 4, 5, 6, 7, 8, 9, 10, 11, 12, 13, 14, 15, 16, 17, 18, 19, 20, 21, 22, 23, 24, 25, 26, 27, 28, 29, 30, 31, 32, 33, 34, 35, 36, 37, 38, 39, 40, 41, 42, 43, 44, 45, 46, 47, 48, 49, 50, 51, 52, 53, 54, 55, 56, 57, 58, 59, 60, 61, 62, 63, 64, 65, 66, 67, 68, 69, 70, 71, 72, 73, 74, 75, 76, 77, 78, 79, 80, 81, 82, 83, 84, 85, 86, 87, 88, 89, 90, 91, 92, 93, 94, 95, 96, 97, 98, 99, 100, 101, 102, 103, 104, 105, 106, 107, 108, 109, 110, 111, 112, 113, 114, 115, 116, 117, 118, 119, 120, 121, 122, 123, 124, 125, 126, 127, 128, 129, 130, 131, 132, 133, 134, 135, 136, 137, 138, 139, 140, 141, 142, 143, 144, 145, 146, 147, 148, 149, 150, 151, 152, 153, 154, 155, 156, 157, 158, 159, 160, 161, 162, 163, 164, 165, 166, 167, 168, 169, 170, 171, 172, 173, 174, 175, 176, 177, 178, 179, 180, 181, 182, 183, 184, 185, 186, 187, 188, 189, 190],
      "WindowCenter": [4862.0, 4828.0, 4804.0, 4830.0, 4866.0, 4880.0, 4878.0, 4880.0, 4874.0, 4864.0, 4830.0, 4828.0, 4828.0, 4830.0, 4866.0, 4874.0, 4866.0, 4838.0, 4830.0, 4834.0, 4868.0, 4878.0, 4882.0, 4878.0, 4868.0, 4836.0, 4828.0, 4830.0, 4838.0, 4870.0, 4872.0, 4866.0, 4838.0, 4864.0, 4866.0, 4870.0, 4874.0, 4870.0, 4860.0, 4858.0, 4862.0, 4864.0, 4840.0, 4838.0, 4866.0, 4870.0, 4868.0, 4864.0, 4834.0, 4834.0, 4866.0, 4876.0, 4876.0, 4870.0, 4868.0, 4862.0, 4830.0, 4826.0, 4830.0, 4866.0, 4876.0, 4882.0, 4876.0, 4864.0, 4856.0, 4860.0, 4838.0, 4856.0, 4830.0, 4832.0, 4866.0, 4866.0, 4872.0, 4864.0, 4870.0, 4862.0, 4864.0, 4836.0, 4828.0, 4830.0, 4838.0, 4866.0, 4860.0, 4868.0, 4868.0, 4842.0, 4860.0, 4832.0, 4834.0, 4836.0, 4836.0, 4860.0, 4862.0, 4864.0, 4832.0, 4838.0, 4866.0, 4838.0, 4838.0, 4860.0, 4838.0, 4830.0, 4836.0, 4860.0, 4860.0, 4866.0, 4862.0, 4864.0, 4864.0, 4860.0, 4836.0, 4838.0, 4836.0, 4828.0, 4860.0, 4864.0, 4862.0, 4862.0, 4862.0, 4832.0, 4830.0, 4858.0, 4860.0, 4838.0, 4862.0, 4840.0, 4836.0, 4836.0, 4862.0, 4842.0, 4834.0, 4834.0, 4862.0, 4862.0, 4836.0, 4842.0, 4836.0, 4834.0, 4840.0, 4844.0, 4838.0, 4862.0, 4862.0, 4836.0, 4836.0, 4838.0, 4834.0, 4836.0, 4840.0, 4836.0, 4836.0, 4840.0, 4840.0, 4862.0, 4834.0, 4834.0, 4838.0, 4834.0, 4836.0, 4834.0, 4838.0, 4828.0, 4828.0, 4868.0, 4874.0, 4864.0, 4832.0, 4830.0, 4832.0, 4838.0, 4864.0, 4862.0, 4832.0, 4830.0, 4830.0, 4862.0, 4874.0, 4872.0, 4868.0, 4838.0, 4836.0, 4834.0, 4832.0, 4832.0, 4830.0, 4832.0, 4862.0, 4862.0, 4866.0, 4866.0],
      "WindowWidth": [18670.0, 18648.0, 18620.0, 18646.0, 18672.0, 18678.0, 18668.0, 18668.0, 18674.0, 18674.0, 18636.0, 18644.0, 18650.0, 18640.0, 18676.0, 18676.0, 18678.0, 18644.0, 18648.0, 18658.0, 18676.0, 18668.0, 18672.0, 18670.0, 18674.0, 18646.0, 18646.0, 18648.0, 18644.0, 18678.0, 18676.0, 18668.0, 18642.0, 18676.0, 18674.0, 18670.0, 18676.0, 18674.0, 18668.0, 18672.0, 18670.0, 18674.0, 18640.0, 18644.0, 18670.0, 18676.0, 18674.0, 18672.0, 18642.0, 18646.0, 18672.0, 18678.0, 18676.0, 18680.0, 18678.0, 18670.0, 18644.0, 18644.0, 18646.0, 18674.0, 18678.0, 18680.0, 18672.0, 18676.0, 18672.0, 18672.0, 18642.0, 18672.0, 18632.0, 18638.0, 18672.0, 18674.0, 18678.0, 18676.0, 18676.0, 18672.0, 18672.0, 18648.0, 18640.0, 18640.0, 18644.0, 18676.0, 18672.0, 18680.0, 18672.0, 18646.0, 18668.0, 18638.0, 18642.0, 18640.0, 18640.0, 18672.0, 18672.0, 18672.0, 18636.0, 18642.0, 18678.0, 18638.0, 18642.0, 18670.0, 18638.0, 18636.0, 18640.0, 18672.0, 18672.0, 18674.0, 18672.0, 18674.0, 18672.0, 18674.0, 18644.0, 18642.0, 18638.0, 18638.0, 18672.0, 18674.0, 18672.0, 18670.0, 18676.0, 18640.0, 18640.0, 18670.0, 18672.0, 18640.0, 18670.0, 18640.0, 18640.0, 18642.0, 18670.0, 18642.0, 18636.0, 18640.0, 18674.0, 18674.0, 18642.0, 18636.0, 18640.0, 18636.0, 18640.0, 18638.0, 18642.0, 18674.0, 18672.0, 18642.0, 18640.0, 18644.0, 18640.0, 18640.0, 18642.0, 18638.0, 18642.0, 18642.0, 18638.0, 18672.0, 18640.0, 18636.0, 18640.0, 18636.0, 18638.0, 18636.0, 18642.0, 18634.0, 18636.0, 18674.0, 18678.0, 18672.0, 18636.0, 18640.0, 18636.0, 18640.0, 18670.0, 18676.0, 18636.0, 18642.0, 18640.0, 18670.0, 18682.0, 18674.0, 18670.0, 18640.0, 18642.0, 18642.0, 18638.0, 18634.0, 18634.0, 18638.0, 18674.0, 18674.0, 18678.0, 18672.0]
    },
    "slices": {}
  }
}