{
  "AcquisitionMatrixPE": 104,
  "AcquisitionNumber": 1,
  "AcquisitionTime": "18:01:17.572500",
  "BandwidthPerPixelPhaseEncode": 17.17,
  "BaseResolution": 104,
  "BodyPartExamined": "BRAIN",
  "CoilString": "HC1-7;NC1_2",
  "ConsistencyInfo": "N4_VE11C_LATEST_20160120",
  "ConversionSoftware": "dcm2niix",
  "ConversionSoftwareVersion": "v1.0.20190902",
  "DerivedVendorReportedEchoSpacing": 0.000560011,
  "DeviceSerialNumber": "167006",
  "DwellTime": 2.1e-06,
  "EchoTime": 0.037,
  "EchoTrainLength": 104,
  "EffectiveEchoSpacing": 0.000560011,
  "FlipAngle": 52,
  "ImageComments": "Unaliased_MB4_PE3_LB",
  "ImageOrientationPatientDICOM": [0.994665, 0.0902866, 0.0499066, -0.0646708, 0.922632, -0.380221],
  "ImageType": [
    "ORIGINAL",
    "PRIMARY",
    "P",
    "MB",
    "ND",
    "MOSAIC"
],
  "ImagingFrequency": 123.259,
  "InPlanePhaseEncodingDirectionDICOM": "COL",
  "InstitutionAddress": "Chemin_Queen-Mary_4565_Montreal_District_CA_H3W_1W5",
  "InstitutionName": "IUGM",
  "InstitutionalDepartmentName": "Department",
  "MRAcquisitionType": "2D",
  "MagneticFieldStrength": 3,
  "Manufacturer": "Siemens",
  "ManufacturersModelName": "Prisma_fit",
  "Modality": "MR",
  "MultibandAccelerationFactor": 4,
  "PartialFourier": 1,
  "PatientPosition": "HFS",
  "PercentPhaseFOV": 100,
  "PhaseEncodingDirection": "j",
  "PhaseEncodingSteps": 104,
  "PhaseResolution": 1,
  "PixelBandwidth": 2290,
  "ProcedureStepDescription": "memory_things",
  "ProtocolName": "func_task-things_run-5",
  "PulseSequenceDetails": "%CustomerSeq%_cmrr_mbep2d_bold",
  "ReceiveCoilActiveElements": "HC1-7;NC1,2",
  "ReceiveCoilName": "HeadNeck_64",
  "ReconMatrixPE": 104,
  "RepetitionTime": 1.49,
  "SAR": 0.0404895,
  "ScanOptions": "FS",
  "ScanningSequence": "EP",
  "SequenceName": "epfid2d1_104",
  "SequenceVariant": "SK_SS",
  "SeriesDescription": "func_task-things_run-5",
  "SeriesNumber": 23,
  "ShimSetting": [634, -7208, -8828, 661, 69, 8, 23, 0],
  "SliceThickness": 2,
  "SliceTiming": [0, 0.7825, 0.0975, 0.88, 0.195, 0.9775, 0.2925, 1.0775, 0.39, 1.175, 0.49, 1.2725, 0.5875, 1.37, 0.685, 0, 0.7825, 0.0975, 0.88, 0.195, 0.9775, 0.2925, 1.0775, 0.39, 1.175, 0.49, 1.2725, 0.5875, 1.37, 0.685, 0, 0.7825, 0.0975, 0.88, 0.195, 0.9775, 0.2925, 1.0775, 0.39, 1.175, 0.49, 1.2725, 0.5875, 1.37, 0.685, 0, 0.7825, 0.0975, 0.88, 0.195, 0.9775, 0.2925, 1.0775, 0.39, 1.175, 0.49, 1.2725, 0.5875, 1.37, 0.685],
  "SoftwareVersions": "syngo_MR_E11",
  "SpacingBetweenSlices": 2,
  "StationName": "MRC35049",
  "TaskName": "things",
  "TotalReadoutTime": 0.0576811,
  "TxRefAmp": 254.624,
  "WipMemBlock": "febdde10-5056-4cd8-9793-57bfa3dfdff9||Sequence: R016 ve11c/master r/e634e98; Dec 19 2017 11:00:25 by eja",
  "dcmmeta_affine": [
    [-1.989329218864441, -0.12934152781963348, 0.1607486456632614, 108.52136993408203],
    [-0.18057319521903992, 1.8452634811401367, -0.7499305605888367, -48.36959457397461],
    [0.09981322288513184, 0.760442852973938, 1.8470960855484009, -68.98951721191406],
    [0.0, 0.0, 0.0, 1.0]
],
  "dcmmeta_reorient_transform": [
    [0.0, -1.0, 0.0, 103.0],
    [1.0, 0.0, 0.0, 0.0],
    [0.0, 0.0, 1.0, 0.0],
    [0.0, 0.0, 0.0, 1.0]
],
  "dcmmeta_shape": [104, 104, 60, 190],
  "dcmmeta_slice_dim": 2,
  "dcmmeta_version": 0.6,
  "global": {
    "const": {
      "AcquisitionMatrix": [104, 0, 0, 104],
      "AngioFlag": "N",
      "BitsAllocated": 16,
      "BitsStored": 16,
      "BodyPartExamined": "BRAIN",
      "Columns": 832,
      "EchoNumbers": 1,
      "EchoTime": 37.0,
      "EchoTrainLength": 104,
      "FlipAngle": 52.0,
      "HighBit": 15,
      "ImageOrientationPatient": [0.99466459675489, 0.09028659998256, 0.04990661104529, -0.0646707673439, 0.92263176252258, -0.3802214126475],
      "ImagePositionPatient": [-772.23469812309, -879.09711477469, 249.80526759414],
      "ImageType": [
        "ORIGINAL",
        "PRIMARY",
        "P",
        "MB",
        "ND",
        "MOSAIC"
],
      "ImagedNucleus": "1H",
      "ImagingFrequency": 123.258975,
      "InPlanePhaseEncodingDirection": "COL",
      "LargestImagePixelValue": 4095,
      "MRAcquisitionType": "2D",
      "MagneticFieldStrength": 3.0,
      "Manufacturer": "SIEMENS",
      "ManufacturerModelName": "Prisma_fit",
      "Modality": "MR",
      "NumberOfAverages": 1.0,
      "NumberOfPhaseEncodingSteps": 104,
      "PercentPhaseFieldOfView": 100.0,
      "PercentSampling": 100.0,
      "PerformedProcedureStepStartTime": "170508.628000",
      "PhotometricInterpretation": "MONOCHROME2",
      "PixelBandwidth": 2290.0,
      "PixelRepresentation": 0,
      "PixelSpacing": [2.0, 2.0],
      "ProtocolName": "func_task-things_run-5",
      "RepetitionTime": 1490.0,
      "RescaleIntercept": -4096.0,
      "RescaleSlope": 2.0,
      "RescaleType": "US",
      "Rows": 832,
      "SAR": 0.04048949470707,
      "SamplesPerPixel": 1,
      "ScanOptions": "FS",
      "ScanningSequence": "EP",
      "SequenceName": "epfid2d1_104",
      "SequenceVariant": [
        "SK",
        "SS"
],
      "SeriesDescription": "func_task-things_run-5",
      "SeriesNumber": 23,
      "SeriesTime": "180243.847000",
      "SliceLocation": -36.855885303561,
      "SliceThickness": 2.0,
      "SmallestImagePixelValue": 0,
      "SoftwareVersions": "syngo MR E11",
      "SpacingBetweenSlices": 1.999999959038,
      "SpecificCharacterSet": "ISO_IR 100",
      "StudyID": "1",
      "StudyTime": "170508.559000",
      "TransmitCoilName": "Body",
      "VariableFlipAngleFlag": "N",
      "WindowCenterWidthExplanation": "Algo1",
      "dBdt": 0.0},
    "slices": {}
  },
  "time": {
    "samples": {
      "AcquisitionNumber": [1, 2, 3, 4, 5, 6, 7, 8, 9, 10, 11, 12, 13, 14, 15, 16, 17, 18, 19, 20, 21, 22, 23, 24, 25, 26, 27, 28, 29, 30, 31, 32, 33, 34, 35, 36, 37, 38, 39, 40, 41, 42, 43, 44, 45, 46, 47, 48, 49, 50, 51, 52, 53, 54, 55, 56, 57, 58, 59, 60, 61, 62, 63, 64, 65, 66, 67, 68, 69, 70, 71, 72, 73, 74, 75, 76, 77, 78, 79, 80, 81, 82, 83, 84, 85, 86, 87, 88, 89, 90, 91, 92, 93, 94, 95, 96, 97, 98, 99, 100, 101, 102, 103, 104, 105, 106, 107, 108, 109, 110, 111, 112, 113, 114, 115, 116, 117, 118, 119, 120, 121, 122, 123, 124, 125, 126, 127, 128, 129, 130, 131, 132, 133, 134, 135, 136, 137, 138, 139, 140, 141, 142, 143, 144, 145, 146, 147, 148, 149, 150, 151, 152, 153, 154, 155, 156, 157, 158, 159, 160, 161, 162, 163, 164, 165, 166, 167, 168, 169, 170, 171, 172, 173, 174, 175, 176, 177, 178, 179, 180, 181, 182, 183, 184, 185, 186, 187, 188, 189, 190],
      "AcquisitionTime": ["180117.572500", "180119.062500", "180120.552500", "180122.042500", "180123.532500", "180125.022500", "180126.512500", "180128.002500", "180129.492500", "180130.982500", "180132.472500", "180133.962500", "180135.452500", "180136.942500", "180138.432500", "180139.922500", "180141.412500", "180142.902500", "180144.392500", "180145.882500", "180147.372500", "180148.862500", "180150.352500", "180151.842500", "180153.332500", "180154.822500", "180156.312500", "180157.802500", "180159.292500", "180200.782500", "180202.272500", "180203.762500", "180205.252500", "180206.742500", "180208.232500", "180209.722500", "180211.212500", "180212.702500", "180214.192500", "180215.682500", "180217.172500", "180218.662500", "180220.152500", "180221.642500", "180223.132500", "180224.622500", "180226.112500", "180227.602500", "180229.092500", "180230.582500", "180232.072500", "180233.562500", "180235.052500", "180236.542500", "180238.032500", "180239.522500", "180241.012500", "180242.502500", "180243.992500", "180245.482500", "180246.972500", "180248.462500", "180249.952500", "180251.442500", "180252.932500", "180254.422500", "180255.912500", "180257.402500", "180258.892500", "180300.382500", "180301.872500", "180303.362500", "180304.852500", "180306.342500", "180307.832500", "180309.322500", "180310.812500", "180312.302500", "180313.792500", "180315.282500", "180316.772500", "180318.262500", "180319.752500", "180321.242500", "180322.732500", "180324.222500", "180325.712500", "180327.202500", "180328.692500", "180330.182500", "180331.672500", "180333.162500", "180334.652500", "180336.142500", "180337.632500", "180339.122500", "180340.612500", "180342.102500", "180343.592500", "180345.082500", "180346.572500", "180348.062500", "180349.552500", "180351.042500", "180352.532500", "180354.022500", "180355.512500", "180357.002500", "180358.492500", "180359.982500", "180401.472500", "180402.962500", "180404.452500", "180405.942500", "180407.432500", "180408.922500", "180410.412500", "180411.902500", "180413.392500", "180414.882500", "180416.372500", "180417.862500", "180419.352500", "180420.842500", "180422.332500", "180423.822500", "180425.312500", "180426.802500", "180428.292500", "180429.782500", "180431.272500", "180432.762500", "180434.252500", "180435.742500", "180437.232500", "180438.722500", "180440.212500", "180441.702500", "180443.192500", "180444.682500", "180446.172500", "180447.662500", "180449.152500", "180450.642500", "180452.132500", "180453.622500", "180455.112500", "180456.602500", "180458.092500", "180459.582500", "180501.072500", "180502.562500", "180504.052500", "180505.542500", "180507.032500", "180508.522500", "180510.012500", "180511.502500", "180512.992500", "180514.482500", "180515.972500", "180517.462500", "180518.952500", "180520.442500", "180521.932500", "180523.422500", "180524.912500", "180526.402500", "180527.892500", "180529.382500", "180530.872500", "180532.362500", "180533.852500", "180535.342500", "180536.832500", "180538.322500", "180539.812500", "180541.302500", "180542.792500", "180544.282500", "180545.772500", "180547.262500", "180548.752500", "180550.242500", "180551.732500", "180553.222500", "180554.712500", "180556.202500", "180557.692500", "180559.182500"],
      "ContentTime": ["180243.849000", "180243.852000", "180243.855000", "180243.857000", "180243.860000", "180243.862000", "180243.865000", "180243.868000", "180243.870000", "180243.873000", "180243.875000", "180243.881000", "180243.884000", "180243.886000", "180243.889000", "180243.892000", "180243.894000", "180243.897000", "180243.899000", "180243.902000", "180243.904000", "180243.907000", "180243.909000", "180243.912000", "180243.915000", "180243.917000", "180243.920000", "180243.922000", "180243.925000", "180243.927000", "180243.930000", "180243.932000", "180303.767000", "180303.769000", "180303.772000", "180303.775000", "180303.777000", "180303.780000", "180303.782000", "180303.785000", "180303.787000", "180303.790000", "180303.793000", "180303.795000", "180303.798000", "180303.800000", "180303.803000", "180303.805000", "180303.808000", "180303.810000", "180303.813000", "180303.816000", "180323.771000", "180323.774000", "180323.777000", "180323.779000", "180323.782000", "180323.784000", "180323.787000", "180323.789000", "180323.792000", "180323.794000", "180323.797000", "180323.800000", "180323.802000", "180323.805000", "180323.807000", "180323.810000", "180323.813000", "180323.815000", "180323.818000", "180323.820000", "180343.776000", "180343.779000", "180343.782000", "180343.784000", "180343.787000", "180343.789000", "180343.792000", "180343.795000", "180343.797000", "180343.800000", "180343.802000", "180343.805000", "180343.807000", "180343.810000", "180343.812000", "180343.815000", "180343.817000", "180343.820000", "180343.823000", "180343.825000", "180423.818000", "180423.821000", "180423.824000", "180423.826000", "180423.829000", "180423.831000", "180423.834000", "180423.837000", "180423.839000", "180423.842000", "180423.845000", "180423.847000", "180423.850000", "180423.852000", "180423.855000", "180423.857000", "180423.860000", "180423.863000", "180423.865000", "180423.868000", "180423.870000", "180423.873000", "180423.876000", "180423.878000", "180423.881000", "180423.883000", "180423.886000", "180423.889000", "180423.891000", "180423.894000", "180423.896000", "180423.899000", "180503.809000", "180503.812000", "180503.815000", "180503.817000", "180503.820000", "180503.823000", "180503.825000", "180503.828000", "180503.830000", "180503.833000", "180503.835000", "180503.838000", "180503.841000", "180503.843000", "180503.846000", "180503.852000", "180503.855000", "180503.858000", "180503.860000", "180503.863000", "180503.865000", "180503.868000", "180503.870000", "180503.873000", "180503.876000", "180503.878000", "180503.881000", "180543.817000", "180543.820000", "180543.822000", "180543.825000", "180543.827000", "180543.830000", "180543.833000", "180543.835000", "180543.838000", "180543.840000", "180543.843000", "180543.845000", "180543.848000", "180543.851000", "180543.853000", "180543.856000", "180543.858000", "180543.861000", "180543.863000", "180543.866000", "180543.869000", "180543.871000", "180543.874000", "180543.876000", "180543.879000", "180543.882000", "180543.884000", "180601.550000", "180601.552000", "180601.560000", "180601.563000", "180601.565000", "180601.568000", "180601.571000", "180601.574000", "180601.576000", "180601.579000", "180601.582000", "180601.584000"],
      "InstanceCreationTime": ["180243.849000", "180243.852000", "180243.855000", "180243.857000", "180243.860000", "180243.862000", "180243.865000", "180243.868000", "180243.870000", "180243.873000", "180243.875000", "180243.881000", "180243.884000", "180243.886000", "180243.889000", "180243.892000", "180243.894000", "180243.897000", "180243.899000", "180243.902000", "180243.904000", "180243.907000", "180243.909000", "180243.912000", "180243.915000", "180243.917000", "180243.920000", "180243.922000", "180243.925000", "180243.927000", "180243.930000", "180243.932000", "180303.767000", "180303.769000", "180303.772000", "180303.775000", "180303.777000", "180303.780000", "180303.782000", "180303.785000", "180303.787000", "180303.790000", "180303.793000", "180303.795000", "180303.798000", "180303.800000", "180303.803000", "180303.805000", "180303.808000", "180303.810000", "180303.813000", "180303.816000", "180323.771000", "180323.774000", "180323.777000", "180323.779000", "180323.782000", "180323.784000", "180323.787000", "180323.789000", "180323.792000", "180323.794000", "180323.797000", "180323.800000", "180323.802000", "180323.805000", "180323.807000", "180323.810000", "180323.813000", "180323.815000", "180323.818000", "180323.820000", "180343.776000", "180343.779000", "180343.782000", "180343.784000", "180343.787000", "180343.789000", "180343.792000", "180343.795000", "180343.797000", "180343.800000", "180343.802000", "180343.805000", "180343.807000", "180343.810000", "180343.812000", "180343.815000", "180343.817000", "180343.820000", "180343.823000", "180343.825000", "180423.818000", "180423.821000", "180423.824000", "180423.826000", "180423.829000", "180423.831000", "180423.834000", "180423.837000", "180423.839000", "180423.842000", "180423.845000", "180423.847000", "180423.850000", "180423.852000", "180423.855000", "180423.857000", "180423.860000", "180423.863000", "180423.865000", "180423.868000", "180423.870000", "180423.873000", "180423.876000", "180423.878000", "180423.881000", "180423.883000", "180423.886000", "180423.889000", "180423.891000", "180423.894000", "180423.896000", "180423.899000", "180503.809000", "180503.812000", "180503.815000", "180503.817000", "180503.820000", "180503.823000", "180503.825000", "180503.828000", "180503.830000", "180503.833000", "180503.835000", "180503.838000", "180503.841000", "180503.843000", "180503.846000", "180503.852000", "180503.855000", "180503.858000", "180503.860000", "180503.863000", "180503.865000", "180503.868000", "180503.870000", "180503.873000", "180503.876000", "180503.878000", "180503.881000", "180543.817000", "180543.820000", "180543.822000", "180543.825000", "180543.827000", "180543.830000", "180543.833000", "180543.835000", "180543.838000", "180543.840000", "180543.843000", "180543.845000", "180543.848000", "180543.851000", "180543.853000", "180543.856000", "180543.858000", "180543.861000", "180543.863000", "180543.866000", "180543.869000", "180543.871000", "180543.874000", "180543.876000", "180543.879000", "180543.882000", "180543.884000", "180601.550000", "180601.552000", "180601.560000", "180601.563000", "180601.565000", "180601.568000", "180601.571000", "180601.574000", "180601.576000", "180601.579000", "180601.582000", "180601.584000"],
      "InstanceNumber": [1, 2, 3, 4, 5, 6, 7, 8, 9, 10, 11, 12, 13, 14, 15, 16, 17, 18, 19, 20, 21, 22, 23, 24, 25, 26, 27, 28, 29, 30, 31, 32, 33, 34, 35, 36, 37, 38, 39, 40, 41, 42, 43, 44, 45, 46, 47, 48, 49, 50, 51, 52, 53, 54, 55, 56, 57, 58, 59, 60, 61, 62, 63, 64, 65, 66, 67, 68, 69, 70, 71, 72, 73, 74, 75, 76, 77, 78, 79, 80, 81, 82, 83, 84, 85, 86, 87, 88, 89, 90, 91, 92, 93, 94, 95, 96, 97, 98, 99, 100, 101, 102, 103, 104, 105, 106, 107, 108, 109, 110, 111, 112, 113, 114, 115, 116, 117, 118, 119, 120, 121, 122, 123, 124, 125, 126, 127, 128, 129, 130, 131, 132, 133, 134, 135, 136, 137, 138, 139, 140, 141, 142, 143, 144, 145, 146, 147, 148, 149, 150, 151, 152, 153, 154, 155, 156, 157, 158, 159, 160, 161, 162, 163, 164, 165, 166, 167, 168, 169, 170, 171, 172, 173, 174, 175, 176, 177, 178, 179, 180, 181, 182, 183, 184, 185, 186, 187, 188, 189, 190],
      "WindowCenter": [4804.0, 4830.0, 4824.0, 4830.0, 4826.0, 4802.0, 4804.0, 4784.0, 4788.0, 4784.0, 4800.0, 4834.0, 4870.0, 4866.0, 4864.0, 4832.0, 4830.0, 4778.0, 4778.0, 4784.0, 4784.0, 4778.0, 4800.0, 4836.0, 4864.0, 4830.0, 4804.0, 4780.0, 4780.0, 4798.0, 4828.0, 4832.0, 4834.0, 4830.0, 4798.0, 4778.0, 4780.0, 4796.0, 4800.0, 4826.0, 4804.0, 4804.0, 4802.0, 4802.0, 4804.0, 4806.0, 4802.0, 4802.0, 4802.0, 4800.0, 4780.0, 4784.0, 4782.0, 4804.0, 4806.0, 4864.0, 4868.0, 4872.0, 4860.0, 4804.0, 4778.0, 4788.0, 4782.0, 4780.0, 4804.0, 4830.0, 4836.0, 4834.0, 4826.0, 4804.0, 4802.0, 4798.0, 4802.0, 4778.0, 4802.0, 4802.0, 4806.0, 4804.0, 4804.0, 4802.0, 4826.0, 4830.0, 4828.0, 4804.0, 4778.0, 4796.0, 4800.0, 4804.0, 4804.0, 4806.0, 4828.0, 4804.0, 4802.0, 4798.0, 4800.0, 4804.0, 4778.0, 4782.0, 4780.0, 4802.0, 4836.0, 4874.0, 4866.0, 4836.0, 4828.0, 4776.0, 4778.0, 4776.0, 4780.0, 4756.0, 4778.0, 4830.0, 4860.0, 4864.0, 4838.0, 4828.0, 4800.0, 4778.0, 4778.0, 4778.0, 4798.0, 4800.0, 4800.0, 4798.0, 4804.0, 4830.0, 4806.0, 4802.0, 4782.0, 4800.0, 4832.0, 4860.0, 4836.0, 4828.0, 4798.0, 4780.0, 4778.0, 4778.0, 4804.0, 4862.0, 4856.0, 4828.0, 4800.0, 4780.0, 4780.0, 4772.0, 4776.0, 4778.0, 4798.0, 4804.0, 4828.0, 4828.0, 4804.0, 4804.0, 4804.0, 4802.0, 4800.0, 4780.0, 4780.0, 4782.0, 4804.0, 4830.0, 4860.0, 4866.0, 4862.0, 4828.0, 4778.0, 4778.0, 4778.0, 4778.0, 4780.0, 4804.0, 4802.0, 4828.0, 4834.0, 4828.0, 4806.0, 4804.0, 4802.0, 4800.0, 4802.0, 4800.0, 4802.0, 4804.0, 4806.0, 4804.0, 4804.0, 4828.0, 4800.0, 4804.0],
      "WindowWidth": [18620.0, 18656.0, 18648.0, 18650.0, 18648.0, 18618.0, 18614.0, 18560.0, 18558.0, 18566.0, 18604.0, 18650.0, 18668.0, 18666.0, 18672.0, 18650.0, 18660.0, 18582.0, 18568.0, 18564.0, 18560.0, 18572.0, 18618.0, 18650.0, 18674.0, 18646.0, 18608.0, 18568.0, 18572.0, 18608.0, 18654.0, 18652.0, 18654.0, 18658.0, 18616.0, 18576.0, 18576.0, 18606.0, 18616.0, 18652.0, 18618.0, 18624.0, 18614.0, 18616.0, 18620.0, 18626.0, 18616.0, 18618.0, 18618.0, 18618.0, 18578.0, 18572.0, 18570.0, 18606.0, 18614.0, 18686.0, 18670.0, 18670.0, 18672.0, 18622.0, 18564.0, 18560.0, 18568.0, 18580.0, 18622.0, 18650.0, 18652.0, 18652.0, 18650.0, 18622.0, 18622.0, 18612.0, 18614.0, 18570.0, 18612.0, 18614.0, 18618.0, 18618.0, 18614.0, 18616.0, 18652.0, 18654.0, 18652.0, 18616.0, 18584.0, 18612.0, 18616.0, 18618.0, 18622.0, 18622.0, 18654.0, 18620.0, 18618.0, 18610.0, 18612.0, 18614.0, 18574.0, 18574.0, 18572.0, 18608.0, 18652.0, 18672.0, 18672.0, 18644.0, 18650.0, 18588.0, 18580.0, 18566.0, 18570.0, 18532.0, 18578.0, 18656.0, 18676.0, 18674.0, 18646.0, 18652.0, 18614.0, 18574.0, 18564.0, 18582.0, 18612.0, 18610.0, 18614.0, 18610.0, 18622.0, 18650.0, 18616.0, 18606.0, 18576.0, 18610.0, 18650.0, 18686.0, 18650.0, 18650.0, 18608.0, 18572.0, 18566.0, 18578.0, 18618.0, 18684.0, 18680.0, 18652.0, 18616.0, 18584.0, 18586.0, 18574.0, 18582.0, 18586.0, 18610.0, 18624.0, 18650.0, 18650.0, 18616.0, 18620.0, 18618.0, 18620.0, 18612.0, 18578.0, 18574.0, 18574.0, 18606.0, 18654.0, 18682.0, 18684.0, 18680.0, 18648.0, 18578.0, 18574.0, 18582.0, 18584.0, 18578.0, 18614.0, 18622.0, 18650.0, 18654.0, 18656.0, 18620.0, 18616.0, 18614.0, 18612.0, 18606.0, 18610.0, 18618.0, 18618.0, 18620.0, 18624.0, 18622.0, 18654.0, 18618.0, 18616.0]
    },
    "slices": {}
  }
}