{
  "AcquisitionMatrixPE": 104,
  "AcquisitionNumber": 1,
  "AcquisitionTime": "18:06:21.435000",
  "BandwidthPerPixelPhaseEncode": 17.17,
  "BaseResolution": 104,
  "BodyPartExamined": "BRAIN",
  "CoilString": "HC1-7;NC1_2",
  "ConsistencyInfo": "N4_VE11C_LATEST_20160120",
  "ConversionSoftware": "dcm2niix",
  "ConversionSoftwareVersion": "v1.0.20190902",
  "DerivedVendorReportedEchoSpacing": 0.000560011,
  "DeviceSerialNumber": "167006",
  "DwellTime": 2.1e-06,
  "EchoTime": 0.037,
  "EchoTrainLength": 104,
  "EffectiveEchoSpacing": 0.000560011,
  "FlipAngle": 52,
  "ImageComments": "Unaliased_MB4_PE3_LB",
  "ImageOrientationPatientDICOM": [0.994665, 0.0902866, 0.0499066, -0.0646708, 0.922632, -0.380221],
  "ImageType": [
    "ORIGINAL",
    "PRIMARY",
    "M",
    "MB",
    "ND",
    "MOSAIC"
],
  "ImagingFrequency": 123.259,
  "InPlanePhaseEncodingDirectionDICOM": "COL",
  "InstitutionAddress": "Chemin_Queen-Mary_4565_Montreal_District_CA_H3W_1W5",
  "InstitutionName": "IUGM",
  "InstitutionalDepartmentName": "Department",
  "MRAcquisitionType": "2D",
  "MagneticFieldStrength": 3,
  "Manufacturer": "Siemens",
  "ManufacturersModelName": "Prisma_fit",
  "Modality": "MR",
  "MultibandAccelerationFactor": 4,
  "PartialFourier": 1,
  "PatientPosition": "HFS",
  "PercentPhaseFOV": 100,
  "PhaseEncodingDirection": "j",
  "PhaseEncodingSteps": 104,
  "PhaseResolution": 1,
  "PixelBandwidth": 2290,
  "ProcedureStepDescription": "memory_things",
  "ProtocolName": "func_task-things_run-6",
  "PulseSequenceDetails": "%CustomerSeq%_cmrr_mbep2d_bold",
  "ReceiveCoilActiveElements": "HC1-7;NC1,2",
  "ReceiveCoilName": "HeadNeck_64",
  "ReconMatrixPE": 104,
  "RepetitionTime": 1.49,
  "SAR": 0.0404895,
  "ScanOptions": "FS",
  "ScanningSequence": "EP",
  "SequenceName": "epfid2d1_104",
  "SequenceVariant": "SK_SS",
  "SeriesDescription": "func_task-things_run-6",
  "SeriesNumber": 25,
  "ShimSetting": [634, -7208, -8828, 661, 69, 8, 23, 0],
  "SliceThickness": 2,
  "SliceTiming": [0, 0.7825, 0.0975, 0.88, 0.195, 0.98, 0.2925, 1.0775, 0.39, 1.175, 0.49, 1.2725, 0.5875, 1.37, 0.685, 0, 0.7825, 0.0975, 0.88, 0.195, 0.98, 0.2925, 1.0775, 0.39, 1.175, 0.49, 1.2725, 0.5875, 1.37, 0.685, 0, 0.7825, 0.0975, 0.88, 0.195, 0.98, 0.2925, 1.0775, 0.39, 1.175, 0.49, 1.2725, 0.5875, 1.37, 0.685, 0, 0.7825, 0.0975, 0.88, 0.195, 0.98, 0.2925, 1.0775, 0.39, 1.175, 0.49, 1.2725, 0.5875, 1.37, 0.685],
  "SoftwareVersions": "syngo_MR_E11",
  "SpacingBetweenSlices": 2,
  "StationName": "MRC35049",
  "TaskName": "things",
  "TotalReadoutTime": 0.0576811,
  "TxRefAmp": 254.624,
  "WipMemBlock": "51e82767-5e8e-4cb2-a2d9-f00727ff6ef7||Sequence: R016 ve11c/master r/e634e98; Dec 19 2017 11:00:25 by eja",
  "dcmmeta_affine": [
    [-1.989329218864441, -0.12934152781963348, 0.1607486456632614, 108.52136993408203],
    [-0.18057319521903992, 1.8452634811401367, -0.7499305605888367, -48.36959457397461],
    [0.09981322288513184, 0.760442852973938, 1.8470960855484009, -68.98951721191406],
    [0.0, 0.0, 0.0, 1.0]
],
  "dcmmeta_reorient_transform": [
    [0.0, -1.0, 0.0, 103.0],
    [1.0, 0.0, 0.0, 0.0],
    [0.0, 0.0, 1.0, 0.0],
    [0.0, 0.0, 0.0, 1.0]
],
  "dcmmeta_shape": [104, 104, 60, 190],
  "dcmmeta_slice_dim": 2,
  "dcmmeta_version": 0.6,
  "global": {
    "const": {
      "AcquisitionMatrix": [104, 0, 0, 104],
      "AngioFlag": "N",
      "BitsAllocated": 16,
      "BitsStored": 16,
      "BodyPartExamined": "BRAIN",
      "Columns": 832,
      "EchoNumbers": 1,
      "EchoTime": 37.0,
      "EchoTrainLength": 104,
      "FlipAngle": 52.0,
      "HighBit": 15,
      "ImageOrientationPatient": [0.99466459675489, 0.09028659998256, 0.04990661104529, -0.0646707673439, 0.92263176252258, -0.3802214126475],
      "ImagePositionPatient": [-772.23469812309, -879.09711477469, 249.80526759414],
      "ImageType": [
        "ORIGINAL",
        "PRIMARY",
        "M",
        "MB",
        "ND",
        "MOSAIC"
],
      "ImagedNucleus": "1H",
      "ImagingFrequency": 123.258979,
      "InPlanePhaseEncodingDirection": "COL",
      "MRAcquisitionType": "2D",
      "MagneticFieldStrength": 3.0,
      "Manufacturer": "SIEMENS",
      "ManufacturerModelName": "Prisma_fit",
      "Modality": "MR",
      "NumberOfAverages": 1.0,
      "NumberOfPhaseEncodingSteps": 104,
      "PercentPhaseFieldOfView": 100.0,
      "PercentSampling": 100.0,
      "PerformedProcedureStepStartTime": "170508.628000",
      "PhotometricInterpretation": "MONOCHROME2",
      "PixelBandwidth": 2290.0,
      "PixelRepresentation": 0,
      "PixelSpacing": [2.0, 2.0],
      "ProtocolName": "func_task-things_run-6",
      "RepetitionTime": 1490.0,
      "Rows": 832,
      "SAR": 0.04048949470707,
      "SamplesPerPixel": 1,
      "ScanOptions": "FS",
      "ScanningSequence": "EP",
      "SequenceName": "epfid2d1_104",
      "SequenceVariant": [
        "SK",
        "SS"
],
      "SeriesDescription": "func_task-things_run-6",
      "SeriesNumber": 25,
      "SeriesTime": "180738.513000",
      "SliceLocation": -36.855885303561,
      "SliceThickness": 2.0,
      "SmallestImagePixelValue": 0,
      "SoftwareVersions": "syngo MR E11",
      "SpacingBetweenSlices": 1.999999959038,
      "SpecificCharacterSet": "ISO_IR 100",
      "StudyID": "1",
      "StudyTime": "170508.559000",
      "TransmitCoilName": "Body",
      "VariableFlipAngleFlag": "N",
      "WindowCenterWidthExplanation": "Algo1",
      "dBdt": 0.0},
    "slices": {}
  },
  "time": {
    "samples": {
      "AcquisitionNumber": [1, 2, 3, 4, 5, 6, 7, 8, 9, 10, 11, 12, 13, 14, 15, 16, 17, 18, 19, 20, 21, 22, 23, 24, 25, 26, 27, 28, 29, 30, 31, 32, 33, 34, 35, 36, 37, 38, 39, 40, 41, 42, 43, 44, 45, 46, 47, 48, 49, 50, 51, 52, 53, 54, 55, 56, 57, 58, 59, 60, 61, 62, 63, 64, 65, 66, 67, 68, 69, 70, 71, 72, 73, 74, 75, 76, 77, 78, 79, 80, 81, 82, 83, 84, 85, 86, 87, 88, 89, 90, 91, 92, 93, 94, 95, 96, 97, 98, 99, 100, 101, 102, 103, 104, 105, 106, 107, 108, 109, 110, 111, 112, 113, 114, 115, 116, 117, 118, 119, 120, 121, 122, 123, 124, 125, 126, 127, 128, 129, 130, 131, 132, 133, 134, 135, 136, 137, 138, 139, 140, 141, 142, 143, 144, 145, 146, 147, 148, 149, 150, 151, 152, 153, 154, 155, 156, 157, 158, 159, 160, 161, 162, 163, 164, 165, 166, 167, 168, 169, 170, 171, 172, 173, 174, 175, 176, 177, 178, 179, 180, 181, 182, 183, 184, 185, 186, 187, 188, 189, 190],
      "AcquisitionTime": ["180621.435000", "180622.925000", "180624.415000", "180625.905000", "180627.395000", "180628.885000", "180630.375000", "180631.865000", "180633.355000", "180634.845000", "180636.335000", "180637.825000", "180639.315000", "180640.805000", "180642.295000", "180643.785000", "180645.275000", "180646.765000", "180648.255000", "180649.745000", "180651.235000", "180652.725000", "180654.215000", "180655.705000", "180657.195000", "180658.685000", "180700.175000", "180701.665000", "180703.155000", "180704.645000", "180706.135000", "180707.625000", "180709.115000", "180710.605000", "180712.095000", "180713.585000", "180715.075000", "180716.565000", "180718.055000", "180719.545000", "180721.035000", "180722.525000", "180724.015000", "180725.505000", "180726.995000", "180728.485000", "180729.975000", "180731.465000", "180732.955000", "180734.445000", "180735.935000", "180737.425000", "180738.915000", "180740.405000", "180741.895000", "180743.385000", "180744.875000", "180746.365000", "180747.855000", "180749.345000", "180750.835000", "180752.325000", "180753.815000", "180755.305000", "180756.795000", "180758.285000", "180759.775000", "180801.265000", "180802.755000", "180804.245000", "180805.735000", "180807.225000", "180808.715000", "180810.205000", "180811.695000", "180813.185000", "180814.675000", "180816.165000", "180817.655000", "180819.145000", "180820.635000", "180822.125000", "180823.615000", "180825.105000", "180826.595000", "180828.085000", "180829.575000", "180831.065000", "180832.555000", "180834.045000", "180835.535000", "180837.025000", "180838.515000", "180840.005000", "180841.495000", "180842.985000", "180844.475000", "180845.965000", "180847.455000", "180848.945000", "180850.435000", "180851.925000", "180853.415000", "180854.905000", "180856.395000", "180857.885000", "180859.375000", "180900.865000", "180902.355000", "180903.845000", "180905.335000", "180906.825000", "180908.315000", "180909.805000", "180911.295000", "180912.785000", "180914.275000", "180915.765000", "180917.255000", "180918.745000", "180920.235000", "180921.725000", "180923.215000", "180924.705000", "180926.195000", "180927.685000", "180929.175000", "180930.665000", "180932.155000", "180933.645000", "180935.135000", "180936.625000", "180938.115000", "180939.605000", "180941.095000", "180942.585000", "180944.075000", "180945.565000", "180947.055000", "180948.545000", "180950.035000", "180951.525000", "180953.015000", "180954.505000", "180955.995000", "180957.485000", "180958.975000", "181000.465000", "181001.955000", "181003.445000", "181004.935000", "181006.425000", "181007.915000", "181009.405000", "181010.895000", "181012.385000", "181013.875000", "181015.365000", "181016.855000", "181018.345000", "181019.835000", "181021.325000", "181022.815000", "181024.305000", "181025.795000", "181027.285000", "181028.775000", "181030.265000", "181031.755000", "181033.245000", "181034.735000", "181036.225000", "181037.715000", "181039.205000", "181040.695000", "181042.185000", "181043.675000", "181045.165000", "181046.655000", "181048.145000", "181049.635000", "181051.125000", "181052.615000", "181054.105000", "181055.595000", "181057.085000", "181058.575000", "181100.065000", "181101.555000", "181103.045000"],
      "ContentTime": ["180738.517000", "180738.528000", "180738.532000", "180738.535000", "180738.539000", "180738.542000", "180738.546000", "180738.549000", "180738.552000", "180738.556000", "180738.559000", "180738.563000", "180738.566000", "180738.569000", "180738.573000", "180738.576000", "180738.580000", "180738.583000", "180738.587000", "180738.590000", "180738.593000", "180738.597000", "180758.480000", "180758.484000", "180758.487000", "180758.491000", "180758.494000", "180758.498000", "180758.501000", "180758.505000", "180758.508000", "180758.512000", "180758.515000", "180758.518000", "180758.522000", "180758.525000", "180758.529000", "180758.532000", "180758.536000", "180758.540000", "180758.543000", "180758.546000", "180818.480000", "180818.484000", "180818.487000", "180818.491000", "180818.494000", "180818.498000", "180818.501000", "180818.504000", "180818.508000", "180818.511000", "180818.515000", "180818.518000", "180818.522000", "180818.525000", "180818.528000", "180818.532000", "180818.535000", "180818.539000", "180818.542000", "180818.546000", "180838.480000", "180838.484000", "180838.487000", "180838.491000", "180838.494000", "180838.498000", "180838.501000", "180838.504000", "180838.508000", "180838.511000", "180838.515000", "180838.530000", "180838.534000", "180838.537000", "180838.540000", "180838.544000", "180838.547000", "180838.551000", "180838.554000", "180838.558000", "180858.480000", "180858.484000", "180858.487000", "180858.491000", "180858.500000", "180858.503000", "180858.507000", "180858.510000", "180858.514000", "180858.517000", "180858.520000", "180858.524000", "180858.527000", "180858.531000", "180858.534000", "180858.537000", "180858.541000", "180858.544000", "180858.548000", "180858.551000", "180938.479000", "180938.483000", "180938.486000", "180938.490000", "180938.494000", "180938.497000", "180938.500000", "180938.504000", "180938.507000", "180938.511000", "180938.514000", "180938.517000", "180938.521000", "180938.524000", "180938.528000", "180938.531000", "180938.535000", "180938.538000", "180938.542000", "180938.545000", "180938.549000", "180938.552000", "180938.555000", "180938.559000", "180938.563000", "180938.566000", "180938.570000", "180938.573000", "180938.577000", "181018.481000", "181018.484000", "181018.488000", "181018.491000", "181018.495000", "181018.498000", "181018.502000", "181018.505000", "181018.509000", "181018.512000", "181018.516000", "181018.519000", "181018.522000", "181018.526000", "181018.529000", "181018.533000", "181018.536000", "181018.540000", "181018.543000", "181018.547000", "181018.550000", "181018.553000", "181018.557000", "181018.560000", "181018.564000", "181018.567000", "181018.571000", "181058.480000", "181058.484000", "181058.488000", "181058.491000", "181058.495000", "181058.498000", "181058.501000", "181058.505000", "181058.508000", "181058.512000", "181058.515000", "181058.519000", "181058.522000", "181058.526000", "181058.529000", "181058.532000", "181058.546000", "181058.549000", "181058.553000", "181058.556000", "181058.560000", "181058.563000", "181058.566000", "181058.570000", "181058.573000", "181058.577000", "181058.580000", "181105.397000", "181105.400000", "181105.404000", "181105.407000", "181105.411000"],
      "InstanceCreationTime": ["180738.517000", "180738.528000", "180738.532000", "180738.535000", "180738.539000", "180738.542000", "180738.546000", "180738.549000", "180738.552000", "180738.556000", "180738.559000", "180738.563000", "180738.566000", "180738.569000", "180738.573000", "180738.576000", "180738.580000", "180738.583000", "180738.587000", "180738.590000", "180738.593000", "180738.597000", "180758.480000", "180758.484000", "180758.487000", "180758.491000", "180758.494000", "180758.498000", "180758.501000", "180758.505000", "180758.508000", "180758.512000", "180758.515000", "180758.518000", "180758.522000", "180758.525000", "180758.529000", "180758.532000", "180758.536000", "180758.540000", "180758.543000", "180758.546000", "180818.480000", "180818.484000", "180818.487000", "180818.491000", "180818.494000", "180818.498000", "180818.501000", "180818.504000", "180818.508000", "180818.511000", "180818.515000", "180818.518000", "180818.522000", "180818.525000", "180818.528000", "180818.532000", "180818.535000", "180818.539000", "180818.542000", "180818.546000", "180838.480000", "180838.484000", "180838.487000", "180838.491000", "180838.494000", "180838.498000", "180838.501000", "180838.504000", "180838.508000", "180838.511000", "180838.515000", "180838.530000", "180838.534000", "180838.537000", "180838.540000", "180838.544000", "180838.547000", "180838.551000", "180838.554000", "180838.558000", "180858.480000", "180858.484000", "180858.487000", "180858.491000", "180858.500000", "180858.503000", "180858.507000", "180858.510000", "180858.514000", "180858.517000", "180858.520000", "180858.524000", "180858.527000", "180858.531000", "180858.534000", "180858.537000", "180858.541000", "180858.544000", "180858.548000", "180858.551000", "180938.479000", "180938.483000", "180938.486000", "180938.490000", "180938.494000", "180938.497000", "180938.500000", "180938.504000", "180938.507000", "180938.511000", "180938.514000", "180938.517000", "180938.521000", "180938.524000", "180938.528000", "180938.531000", "180938.535000", "180938.538000", "180938.542000", "180938.545000", "180938.549000", "180938.552000", "180938.555000", "180938.559000", "180938.563000", "180938.566000", "180938.570000", "180938.573000", "180938.577000", "181018.481000", "181018.484000", "181018.488000", "181018.491000", "181018.495000", "181018.498000", "181018.502000", "181018.505000", "181018.509000", "181018.512000", "181018.516000", "181018.519000", "181018.522000", "181018.526000", "181018.529000", "181018.533000", "181018.536000", "181018.540000", "181018.543000", "181018.547000", "181018.550000", "181018.553000", "181018.557000", "181018.560000", "181018.564000", "181018.567000", "181018.571000", "181058.480000", "181058.484000", "181058.488000", "181058.491000", "181058.495000", "181058.498000", "181058.501000", "181058.505000", "181058.508000", "181058.512000", "181058.515000", "181058.519000", "181058.522000", "181058.526000", "181058.529000", "181058.532000", "181058.546000", "181058.549000", "181058.553000", "181058.556000", "181058.560000", "181058.563000", "181058.566000", "181058.570000", "181058.573000", "181058.577000", "181058.580000", "181105.397000", "181105.400000", "181105.404000", "181105.407000", "181105.411000"],
      "InstanceNumber": [1, 2, 3, 4, 5, 6, 7, 8, 9, 10, 11, 12, 13, 14, 15, 16, 17, 18, 19, 20, 21, 22, 23, 24, 25, 26, 27, 28, 29, 30, 31, 32, 33, 34, 35, 36, 37, 38, 39, 40, 41, 42, 43, 44, 45, 46, 47, 48, 49, 50, 51, 52, 53, 54, 55, 56, 57, 58, 59, 60, 61, 62, 63, 64, 65, 66, 67, 68, 69, 70, 71, 72, 73, 74, 75, 76, 77, 78, 79, 80, 81, 82, 83, 84, 85, 86, 87, 88, 89, 90, 91, 92, 93, 94, 95, 96, 97, 98, 99, 100, 101, 102, 103, 104, 105, 106, 107, 108, 109, 110, 111, 112, 113, 114, 115, 116, 117, 118, 119, 120, 121, 122, 123, 124, 125, 126, 127, 128, 129, 130, 131, 132, 133, 134, 135, 136, 137, 138, 139, 140, 141, 142, 143, 144, 145, 146, 147, 148, 149, 150, 151, 152, 153, 154, 155, 156, 157, 158, 159, 160, 161, 162, 163, 164, 165, 166, 167, 168, 169, 170, 171, 172, 173, 174, 175, 176, 177, 178, 179, 180, 181, 182, 183, 184, 185, 186, 187, 188, 189, 190],
      "LargestImagePixelValue": [45923, 50796, 43897, 43310, 43977, 42652, 42708, 42515, 42218, 42585, 42514, 42472, 43177, 42321, 43725, 42965, 43281, 42631, 42880, 42426, 42510, 43022, 43046, 43177, 42127, 42877, 41755, 41698, 40311, 42062, 42413, 42570, 41624, 43144, 43321, 43023, 42648, 41642, 40138, 40581, 40301, 40979, 40982, 42138, 42889, 42426, 41903, 41580, 41629, 41403, 41338, 41259, 41571, 41498, 48212, 40602, 42057, 43555, 48511, 43342, 43514, 44172, 44172, 43443, 43455, 42964, 43787, 41136, 40935, 41811, 41803, 42488, 41515, 40700, 50735, 41872, 41249, 41116, 39989, 40186, 40957, 47417, 43058, 41830, 40795, 41720, 41884, 45091, 44215, 43890, 44078, 44473, 44269, 44148, 43750, 44921, 44553, 43524, 43136, 43864, 44749, 44538, 44003, 44413, 44484, 44692, 44045, 43876, 44472, 44232, 44042, 44821, 44360, 44109, 44022, 44759, 44408, 43649, 48051, 44476, 44786, 43365, 43807, 43907, 43090, 44447, 43017, 43496, 42902, 44258, 44573, 43380, 43390, 43447, 43387, 51364, 43030, 43037, 43494, 43456, 43153, 42659, 43055, 43333, 43172, 42404, 41702, 41510, 54280, 44395, 42954, 43369, 42655, 42334, 42505, 42624, 42592, 44337, 41997, 42340, 42710, 42817, 43525, 42708, 41928, 41733, 41545, 41300, 45692, 41555, 41740, 41915, 43645, 44829, 43046, 41662, 42141, 41432, 41838, 42095, 47794, 42214, 42301, 43526, 42973, 44977, 42750, 42498, 41621, 41568],
      "WindowCenter": [10614.0, 10618.0, 10549.0, 10541.0, 10525.0, 10488.0, 10487.0, 10500.0, 10501.0, 10513.0, 10532.0, 10519.0, 10504.0, 10490.0, 10522.0, 10526.0, 10570.0, 10599.0, 10584.0, 10521.0, 10494.0, 10500.0, 10497.0, 10488.0, 10484.0, 10504.0, 10506.0, 10512.0, 10491.0, 10505.0, 10516.0, 10523.0, 10533.0, 10562.0, 10544.0, 10528.0, 10515.0, 10529.0, 10529.0, 10524.0, 10488.0, 10482.0, 10474.0, 10510.0, 10538.0, 10539.0, 10524.0, 10498.0, 10469.0, 10476.0, 10479.0, 10479.0, 10478.0, 10495.0, 10579.0, 10504.0, 10500.0, 10496.0, 10553.0, 10513.0, 10529.0, 10554.0, 10567.0, 10545.0, 10527.0, 10511.0, 10534.0, 10530.0, 10528.0, 10544.0, 10543.0, 10533.0, 10511.0, 10491.0, 10607.0, 10525.0, 10537.0, 10540.0, 10533.0, 10536.0, 10533.0, 10581.0, 10542.0, 10533.0, 10533.0, 10554.0, 10544.0, 10565.0, 10543.0, 10558.0, 10569.0, 10558.0, 10535.0, 10523.0, 10526.0, 10551.0, 10560.0, 10553.0, 10581.0, 10579.0, 10558.0, 10539.0, 10540.0, 10560.0, 10557.0, 10545.0, 10522.0, 10526.0, 10549.0, 10562.0, 10559.0, 10556.0, 10555.0, 10547.0, 10564.0, 10568.0, 10564.0, 10553.0, 10595.0, 10575.0, 10579.0, 10588.0, 10588.0, 10582.0, 10567.0, 10576.0, 10567.0, 10581.0, 10570.0, 10566.0, 10567.0, 10569.0, 10588.0, 10589.0, 10578.0, 10639.0, 10566.0, 10582.0, 10599.0, 10587.0, 10571.0, 10559.0, 10571.0, 10573.0, 10570.0, 10582.0, 10596.0, 10572.0, 10656.0, 10553.0, 10530.0, 10557.0, 10571.0, 10600.0, 10606.0, 10587.0, 10556.0, 10560.0, 10520.0, 10525.0, 10530.0, 10545.0, 10569.0, 10558.0, 10548.0, 10559.0, 10570.0, 10565.0, 10619.0, 10565.0, 10563.0, 10569.0, 10578.0, 10593.0, 10595.0, 10607.0, 10616.0, 10591.0, 10566.0, 10548.0, 10597.0, 10551.0, 10561.0, 10589.0, 10594.0, 10623.0, 10595.0, 10587.0, 10577.0, 10589.0],
      "WindowWidth": [22612.0, 22598.0, 22437.0, 22418.0, 22372.0, 22288.0, 22286.0, 22316.0, 22320.0, 22344.0, 22389.0, 22359.0, 22322.0, 22293.0, 22359.0, 22376.0, 22483.0, 22553.0, 22510.0, 22356.0, 22293.0, 22311.0, 22302.0, 22277.0, 22275.0, 22322.0, 22337.0, 22351.0, 22302.0, 22327.0, 22350.0, 22365.0, 22397.0, 22460.0, 22411.0, 22374.0, 22346.0, 22385.0, 22393.0, 22382.0, 22292.0, 22274.0, 22258.0, 22335.0, 22402.0, 22404.0, 22371.0, 22305.0, 22245.0, 22260.0, 22269.0, 22265.0, 22262.0, 22305.0, 22494.0, 22336.0, 22317.0, 22298.0, 22430.0, 22341.0, 22376.0, 22436.0, 22477.0, 22419.0, 22372.0, 22335.0, 22392.0, 22395.0, 22391.0, 22421.0, 22416.0, 22387.0, 22339.0, 22297.0, 22576.0, 22371.0, 22406.0, 22413.0, 22401.0, 22409.0, 22398.0, 22497.0, 22410.0, 22391.0, 22402.0, 22448.0, 22422.0, 22456.0, 22403.0, 22442.0, 22470.0, 22436.0, 22383.0, 22356.0, 22378.0, 22427.0, 22446.0, 22437.0, 22506.0, 22496.0, 22438.0, 22392.0, 22399.0, 22449.0, 22445.0, 22408.0, 22356.0, 22376.0, 22421.0, 22456.0, 22457.0, 22439.0, 22437.0, 22418.0, 22465.0, 22467.0, 22463.0, 22443.0, 22527.0, 22485.0, 22495.0, 22529.0, 22520.0, 22505.0, 22475.0, 22492.0, 22479.0, 22514.0, 22489.0, 22463.0, 22464.0, 22472.0, 22520.0, 22520.0, 22491.0, 22619.0, 22466.0, 22506.0, 22549.0, 22511.0, 22473.0, 22453.0, 22478.0, 22485.0, 22474.0, 22503.0, 22558.0, 22497.0, 22646.0, 22433.0, 22382.0, 22444.0, 22479.0, 22553.0, 22563.0, 22516.0, 22448.0, 22455.0, 22369.0, 22376.0, 22384.0, 22416.0, 22479.0, 22448.0, 22423.0, 22451.0, 22480.0, 22467.0, 22590.0, 22466.0, 22461.0, 22488.0, 22502.0, 22522.0, 22536.0, 22571.0, 22589.0, 22532.0, 22467.0, 22426.0, 22530.0, 22438.0, 22461.0, 22530.0, 22539.0, 22602.0, 22538.0, 22519.0, 22502.0, 22526.0]
    },
    "slices": {}
  }
}