{
  "AcquisitionMatrixPE": 104,
  "AcquisitionNumber": 1,
  "AcquisitionTime": "18:01:17.572500",
  "BandwidthPerPixelPhaseEncode": 17.17,
  "BaseResolution": 104,
  "BodyPartExamined": "BRAIN",
  "CoilString": "HC1-7;NC1_2",
  "ConsistencyInfo": "N4_VE11C_LATEST_20160120",
  "ConversionSoftware": "dcm2niix",
  "ConversionSoftwareVersion": "v1.0.20190902",
  "DerivedVendorReportedEchoSpacing": 0.000560011,
  "DeviceSerialNumber": "167006",
  "DwellTime": 2.1e-06,
  "EchoTime": 0.037,
  "EchoTrainLength": 104,
  "EffectiveEchoSpacing": 0.000560011,
  "FlipAngle": 52,
  "ImageComments": "Unaliased_MB4_PE3_LB",
  "ImageOrientationPatientDICOM": [0.994665, 0.0902866, 0.0499066, -0.0646708, 0.922632, -0.380221],
  "ImageType": [
    "ORIGINAL",
    "PRIMARY",
    "M",
    "MB",
    "ND",
    "MOSAIC"
],
  "ImagingFrequency": 123.259,
  "InPlanePhaseEncodingDirectionDICOM": "COL",
  "InstitutionAddress": "Chemin_Queen-Mary_4565_Montreal_District_CA_H3W_1W5",
  "InstitutionName": "IUGM",
  "InstitutionalDepartmentName": "Department",
  "MRAcquisitionType": "2D",
  "MagneticFieldStrength": 3,
  "Manufacturer": "Siemens",
  "ManufacturersModelName": "Prisma_fit",
  "Modality": "MR",
  "MultibandAccelerationFactor": 4,
  "PartialFourier": 1,
  "PatientPosition": "HFS",
  "PercentPhaseFOV": 100,
  "PhaseEncodingDirection": "j",
  "PhaseEncodingSteps": 104,
  "PhaseResolution": 1,
  "PixelBandwidth": 2290,
  "ProcedureStepDescription": "memory_things",
  "ProtocolName": "func_task-things_run-5",
  "PulseSequenceDetails": "%CustomerSeq%_cmrr_mbep2d_bold",
  "ReceiveCoilActiveElements": "HC1-7;NC1,2",
  "ReceiveCoilName": "HeadNeck_64",
  "ReconMatrixPE": 104,
  "RepetitionTime": 1.49,
  "SAR": 0.0404895,
  "ScanOptions": "FS",
  "ScanningSequence": "EP",
  "SequenceName": "epfid2d1_104",
  "SequenceVariant": "SK_SS",
  "SeriesDescription": "func_task-things_run-5",
  "SeriesNumber": 22,
  "ShimSetting": [634, -7208, -8828, 661, 69, 8, 23, 0],
  "SliceThickness": 2,
  "SliceTiming": [0, 0.7825, 0.0975, 0.88, 0.195, 0.9775, 0.2925, 1.0775, 0.39, 1.175, 0.49, 1.2725, 0.5875, 1.37, 0.685, 0, 0.7825, 0.0975, 0.88, 0.195, 0.9775, 0.2925, 1.0775, 0.39, 1.175, 0.49, 1.2725, 0.5875, 1.37, 0.685, 0, 0.7825, 0.0975, 0.88, 0.195, 0.9775, 0.2925, 1.0775, 0.39, 1.175, 0.49, 1.2725, 0.5875, 1.37, 0.685, 0, 0.7825, 0.0975, 0.88, 0.195, 0.9775, 0.2925, 1.0775, 0.39, 1.175, 0.49, 1.2725, 0.5875, 1.37, 0.685],
  "SoftwareVersions": "syngo_MR_E11",
  "SpacingBetweenSlices": 2,
  "StationName": "MRC35049",
  "TaskName": "things",
  "TotalReadoutTime": 0.0576811,
  "TxRefAmp": 254.624,
  "WipMemBlock": "febdde10-5056-4cd8-9793-57bfa3dfdff9||Sequence: R016 ve11c/master r/e634e98; Dec 19 2017 11:00:25 by eja",
  "dcmmeta_affine": [
    [-1.989329218864441, -0.12934152781963348, 0.1607486456632614, 108.52136993408203],
    [-0.18057319521903992, 1.8452634811401367, -0.7499305605888367, -48.36959457397461],
    [0.09981322288513184, 0.760442852973938, 1.8470960855484009, -68.98951721191406],
    [0.0, 0.0, 0.0, 1.0]
],
  "dcmmeta_reorient_transform": [
    [0.0, -1.0, 0.0, 103.0],
    [1.0, 0.0, 0.0, 0.0],
    [0.0, 0.0, 1.0, 0.0],
    [0.0, 0.0, 0.0, 1.0]
],
  "dcmmeta_shape": [104, 104, 60, 190],
  "dcmmeta_slice_dim": 2,
  "dcmmeta_version": 0.6,
  "global": {
    "const": {
      "AcquisitionMatrix": [104, 0, 0, 104],
      "AngioFlag": "N",
      "BitsAllocated": 16,
      "BitsStored": 16,
      "BodyPartExamined": "BRAIN",
      "Columns": 832,
      "EchoNumbers": 1,
      "EchoTime": 37.0,
      "EchoTrainLength": 104,
      "FlipAngle": 52.0,
      "HighBit": 15,
      "ImageOrientationPatient": [0.99466459675489, 0.09028659998256, 0.04990661104529, -0.0646707673439, 0.92263176252258, -0.3802214126475],
      "ImagePositionPatient": [-772.23469812309, -879.09711477469, 249.80526759414],
      "ImageType": [
        "ORIGINAL",
        "PRIMARY",
        "M",
        "MB",
        "ND",
        "MOSAIC"
],
      "ImagedNucleus": "1H",
      "ImagingFrequency": 123.258975,
      "InPlanePhaseEncodingDirection": "COL",
      "MRAcquisitionType": "2D",
      "MagneticFieldStrength": 3.0,
      "Manufacturer": "SIEMENS",
      "ManufacturerModelName": "Prisma_fit",
      "Modality": "MR",
      "NumberOfAverages": 1.0,
      "NumberOfPhaseEncodingSteps": 104,
      "PercentPhaseFieldOfView": 100.0,
      "PercentSampling": 100.0,
      "PerformedProcedureStepStartTime": "170508.628000",
      "PhotometricInterpretation": "MONOCHROME2",
      "PixelBandwidth": 2290.0,
      "PixelRepresentation": 0,
      "PixelSpacing": [2.0, 2.0],
      "ProtocolName": "func_task-things_run-5",
      "RepetitionTime": 1490.0,
      "Rows": 832,
      "SAR": 0.04048949470707,
      "SamplesPerPixel": 1,
      "ScanOptions": "FS",
      "ScanningSequence": "EP",
      "SequenceName": "epfid2d1_104",
      "SequenceVariant": [
        "SK",
        "SS"
],
      "SeriesDescription": "func_task-things_run-5",
      "SeriesNumber": 22,
      "SeriesTime": "180243.694000",
      "SliceLocation": -36.855885303561,
      "SliceThickness": 2.0,
      "SmallestImagePixelValue": 0,
      "SoftwareVersions": "syngo MR E11",
      "SpacingBetweenSlices": 1.999999959038,
      "SpecificCharacterSet": "ISO_IR 100",
      "StudyID": "1",
      "StudyTime": "170508.559000",
      "TransmitCoilName": "Body",
      "VariableFlipAngleFlag": "N",
      "WindowCenterWidthExplanation": "Algo1",
      "dBdt": 0.0},
    "slices": {}
  },
  "time": {
    "samples": {
      "AcquisitionNumber": [1, 2, 3, 4, 5, 6, 7, 8, 9, 10, 11, 12, 13, 14, 15, 16, 17, 18, 19, 20, 21, 22, 23, 24, 25, 26, 27, 28, 29, 30, 31, 32, 33, 34, 35, 36, 37, 38, 39, 40, 41, 42, 43, 44, 45, 46, 47, 48, 49, 50, 51, 52, 53, 54, 55, 56, 57, 58, 59, 60, 61, 62, 63, 64, 65, 66, 67, 68, 69, 70, 71, 72, 73, 74, 75, 76, 77, 78, 79, 80, 81, 82, 83, 84, 85, 86, 87, 88, 89, 90, 91, 92, 93, 94, 95, 96, 97, 98, 99, 100, 101, 102, 103, 104, 105, 106, 107, 108, 109, 110, 111, 112, 113, 114, 115, 116, 117, 118, 119, 120, 121, 122, 123, 124, 125, 126, 127, 128, 129, 130, 131, 132, 133, 134, 135, 136, 137, 138, 139, 140, 141, 142, 143, 144, 145, 146, 147, 148, 149, 150, 151, 152, 153, 154, 155, 156, 157, 158, 159, 160, 161, 162, 163, 164, 165, 166, 167, 168, 169, 170, 171, 172, 173, 174, 175, 176, 177, 178, 179, 180, 181, 182, 183, 184, 185, 186, 187, 188, 189, 190],
      "AcquisitionTime": ["180117.572500", "180119.062500", "180120.552500", "180122.042500", "180123.532500", "180125.022500", "180126.512500", "180128.002500", "180129.492500", "180130.982500", "180132.472500", "180133.962500", "180135.452500", "180136.942500", "180138.432500", "180139.922500", "180141.412500", "180142.902500", "180144.392500", "180145.882500", "180147.372500", "180148.862500", "180150.352500", "180151.842500", "180153.332500", "180154.822500", "180156.312500", "180157.802500", "180159.292500", "180200.782500", "180202.272500", "180203.762500", "180205.252500", "180206.742500", "180208.232500", "180209.722500", "180211.212500", "180212.702500", "180214.192500", "180215.682500", "180217.172500", "180218.662500", "180220.152500", "180221.642500", "180223.132500", "180224.622500", "180226.112500", "180227.602500", "180229.092500", "180230.582500", "180232.072500", "180233.562500", "180235.052500", "180236.542500", "180238.032500", "180239.522500", "180241.012500", "180242.502500", "180243.992500", "180245.482500", "180246.972500", "180248.462500", "180249.952500", "180251.442500", "180252.932500", "180254.422500", "180255.912500", "180257.402500", "180258.892500", "180300.382500", "180301.872500", "180303.362500", "180304.852500", "180306.342500", "180307.832500", "180309.322500", "180310.812500", "180312.302500", "180313.792500", "180315.282500", "180316.772500", "180318.262500", "180319.752500", "180321.242500", "180322.732500", "180324.222500", "180325.712500", "180327.202500", "180328.692500", "180330.182500", "180331.672500", "180333.162500", "180334.652500", "180336.142500", "180337.632500", "180339.122500", "180340.612500", "180342.102500", "180343.592500", "180345.082500", "180346.572500", "180348.062500", "180349.552500", "180351.042500", "180352.532500", "180354.022500", "180355.512500", "180357.002500", "180358.492500", "180359.982500", "180401.472500", "180402.962500", "180404.452500", "180405.942500", "180407.432500", "180408.922500", "180410.412500", "180411.902500", "180413.392500", "180414.882500", "180416.372500", "180417.862500", "180419.352500", "180420.842500", "180422.332500", "180423.822500", "180425.312500", "180426.802500", "180428.292500", "180429.782500", "180431.272500", "180432.762500", "180434.252500", "180435.742500", "180437.232500", "180438.722500", "180440.212500", "180441.702500", "180443.192500", "180444.682500", "180446.172500", "180447.662500", "180449.152500", "180450.642500", "180452.132500", "180453.622500", "180455.112500", "180456.602500", "180458.092500", "180459.582500", "180501.072500", "180502.562500", "180504.052500", "180505.542500", "180507.032500", "180508.522500", "180510.012500", "180511.502500", "180512.992500", "180514.482500", "180515.972500", "180517.462500", "180518.952500", "180520.442500", "180521.932500", "180523.422500", "180524.912500", "180526.402500", "180527.892500", "180529.382500", "180530.872500", "180532.362500", "180533.852500", "180535.342500", "180536.832500", "180538.322500", "180539.812500", "180541.302500", "180542.792500", "180544.282500", "180545.772500", "180547.262500", "180548.752500", "180550.242500", "180551.732500", "180553.222500", "180554.712500", "180556.202500", "180557.692500", "180559.182500"],
      "ContentTime": ["180243.698000", "180243.702000", "180243.705000", "180243.709000", "180243.713000", "180243.716000", "180243.719000", "180243.723000", "180243.729000", "180243.733000", "180243.736000", "180243.739000", "180243.743000", "180243.746000", "180243.750000", "180243.753000", "180243.757000", "180243.760000", "180243.764000", "180243.767000", "180243.770000", "180243.774000", "180243.777000", "180243.781000", "180243.784000", "180243.787000", "180243.791000", "180243.794000", "180243.798000", "180243.801000", "180243.804000", "180243.808000", "180303.662000", "180303.666000", "180303.669000", "180303.673000", "180303.676000", "180303.680000", "180303.683000", "180303.687000", "180303.690000", "180303.693000", "180303.697000", "180303.700000", "180303.703000", "180303.707000", "180303.710000", "180303.714000", "180303.717000", "180303.720000", "180303.724000", "180303.727000", "180323.662000", "180323.666000", "180323.669000", "180323.673000", "180323.676000", "180323.679000", "180323.683000", "180323.686000", "180323.690000", "180323.693000", "180323.697000", "180323.700000", "180323.704000", "180323.707000", "180323.710000", "180323.714000", "180323.717000", "180323.721000", "180323.724000", "180323.728000", "180343.673000", "180343.677000", "180343.680000", "180343.684000", "180343.687000", "180343.690000", "180343.694000", "180343.697000", "180343.701000", "180343.704000", "180343.708000", "180343.711000", "180343.714000", "180343.718000", "180343.721000", "180343.725000", "180343.728000", "180343.732000", "180343.735000", "180343.738000", "180423.661000", "180423.665000", "180423.669000", "180423.672000", "180423.675000", "180423.679000", "180423.682000", "180423.686000", "180423.689000", "180423.692000", "180423.696000", "180423.699000", "180423.703000", "180423.706000", "180423.710000", "180423.713000", "180423.717000", "180423.720000", "180423.724000", "180423.727000", "180423.730000", "180423.734000", "180423.737000", "180423.741000", "180423.744000", "180423.747000", "180423.751000", "180423.754000", "180423.758000", "180423.761000", "180423.765000", "180423.768000", "180503.662000", "180503.666000", "180503.670000", "180503.673000", "180503.676000", "180503.680000", "180503.683000", "180503.687000", "180503.690000", "180503.693000", "180503.697000", "180503.700000", "180503.704000", "180503.707000", "180503.711000", "180503.714000", "180503.718000", "180503.721000", "180503.725000", "180503.728000", "180503.731000", "180503.735000", "180503.738000", "180503.742000", "180503.745000", "180503.748000", "180503.752000", "180543.662000", "180543.666000", "180543.669000", "180543.673000", "180543.676000", "180543.680000", "180543.683000", "180543.687000", "180543.690000", "180543.694000", "180543.697000", "180543.700000", "180543.704000", "180543.707000", "180543.711000", "180543.714000", "180543.730000", "180543.733000", "180543.736000", "180543.740000", "180543.748000", "180543.751000", "180543.755000", "180543.758000", "180543.762000", "180543.765000", "180543.768000", "180601.475000", "180601.479000", "180601.483000", "180601.486000", "180601.489000", "180601.493000", "180601.496000", "180601.500000", "180601.503000", "180601.506000", "180601.510000", "180601.513000"],
      "InstanceCreationTime": ["180243.698000", "180243.702000", "180243.705000", "180243.709000", "180243.713000", "180243.716000", "180243.719000", "180243.723000", "180243.729000", "180243.733000", "180243.736000", "180243.739000", "180243.743000", "180243.746000", "180243.750000", "180243.753000", "180243.757000", "180243.760000", "180243.764000", "180243.767000", "180243.770000", "180243.774000", "180243.777000", "180243.781000", "180243.784000", "180243.787000", "180243.791000", "180243.794000", "180243.798000", "180243.801000", "180243.804000", "180243.808000", "180303.662000", "180303.666000", "180303.669000", "180303.673000", "180303.676000", "180303.680000", "180303.683000", "180303.687000", "180303.690000", "180303.693000", "180303.697000", "180303.700000", "180303.703000", "180303.707000", "180303.710000", "180303.714000", "180303.717000", "180303.720000", "180303.724000", "180303.727000", "180323.662000", "180323.666000", "180323.669000", "180323.673000", "180323.676000", "180323.679000", "180323.683000", "180323.686000", "180323.690000", "180323.693000", "180323.697000", "180323.700000", "180323.704000", "180323.707000", "180323.710000", "180323.714000", "180323.717000", "180323.721000", "180323.724000", "180323.728000", "180343.673000", "180343.677000", "180343.680000", "180343.684000", "180343.687000", "180343.690000", "180343.694000", "180343.697000", "180343.701000", "180343.704000", "180343.708000", "180343.711000", "180343.714000", "180343.718000", "180343.721000", "180343.725000", "180343.728000", "180343.732000", "180343.735000", "180343.738000", "180423.661000", "180423.665000", "180423.669000", "180423.672000", "180423.675000", "180423.679000", "180423.682000", "180423.686000", "180423.689000", "180423.692000", "180423.696000", "180423.699000", "180423.703000", "180423.706000", "180423.710000", "180423.713000", "180423.717000", "180423.720000", "180423.724000", "180423.727000", "180423.730000", "180423.734000", "180423.737000", "180423.741000", "180423.744000", "180423.747000", "180423.751000", "180423.754000", "180423.758000", "180423.761000", "180423.765000", "180423.768000", "180503.662000", "180503.666000", "180503.670000", "180503.673000", "180503.676000", "180503.680000", "180503.683000", "180503.687000", "180503.690000", "180503.693000", "180503.697000", "180503.700000", "180503.704000", "180503.707000", "180503.711000", "180503.714000", "180503.718000", "180503.721000", "180503.725000", "180503.728000", "180503.731000", "180503.735000", "180503.738000", "180503.742000", "180503.745000", "180503.748000", "180503.752000", "180543.662000", "180543.666000", "180543.669000", "180543.673000", "180543.676000", "180543.680000", "180543.683000", "180543.687000", "180543.690000", "180543.694000", "180543.697000", "180543.700000", "180543.704000", "180543.707000", "180543.711000", "180543.714000", "180543.730000", "180543.733000", "180543.736000", "180543.740000", "180543.748000", "180543.751000", "180543.755000", "180543.758000", "180543.762000", "180543.765000", "180543.768000", "180601.475000", "180601.479000", "180601.483000", "180601.486000", "180601.489000", "180601.493000", "180601.496000", "180601.500000", "180601.503000", "180601.506000", "180601.510000", "180601.513000"],
      "InstanceNumber": [1, 2, 3, 4, 5, 6, 7, 8, 9, 10, 11, 12, 13, 14, 15, 16, 17, 18, 19, 20, 21, 22, 23, 24, 25, 26, 27, 28, 29, 30, 31, 32, 33, 34, 35, 36, 37, 38, 39, 40, 41, 42, 43, 44, 45, 46, 47, 48, 49, 50, 51, 52, 53, 54, 55, 56, 57, 58, 59, 60, 61, 62, 63, 64, 65, 66, 67, 68, 69, 70, 71, 72, 73, 74, 75, 76, 77, 78, 79, 80, 81, 82, 83, 84, 85, 86, 87, 88, 89, 90, 91, 92, 93, 94, 95, 96, 97, 98, 99, 100, 101, 102, 103, 104, 105, 106, 107, 108, 109, 110, 111, 112, 113, 114, 115, 116, 117, 118, 119, 120, 121, 122, 123, 124, 125, 126, 127, 128, 129, 130, 131, 132, 133, 134, 135, 136, 137, 138, 139, 140, 141, 142, 143, 144, 145, 146, 147, 148, 149, 150, 151, 152, 153, 154, 155, 156, 157, 158, 159, 160, 161, 162, 163, 164, 165, 166, 167, 168, 169, 170, 171, 172, 173, 174, 175, 176, 177, 178, 179, 180, 181, 182, 183, 184, 185, 186, 187, 188, 189, 190],
      "LargestImagePixelValue": [48698, 45104, 45070, 45507, 45983, 45616, 46216, 46671, 47759, 44525, 44406, 43274, 43939, 46275, 47506, 46089, 46635, 46680, 45336, 45335, 43415, 46622, 42938, 44324, 44076, 46486, 48717, 47612, 45809, 44817, 47627, 47653, 47754, 46386, 45942, 46288, 44331, 43840, 44034, 43956, 44137, 44258, 45267, 44651, 44670, 43714, 44103, 44088, 45207, 43959, 43401, 42453, 44778, 44599, 44412, 44869, 46109, 46689, 45948, 45513, 46822, 46287, 43320, 44293, 43775, 42505, 42272, 43460, 43427, 42228, 42994, 44203, 42858, 42258, 43877, 44794, 44996, 44001, 43003, 43509, 43632, 46231, 43340, 42741, 44186, 45130, 45486, 45096, 45066, 45557, 45535, 44683, 44376, 44267, 44815, 45561, 43714, 44835, 45459, 44083, 44557, 43905, 44760, 43799, 43205, 43337, 43533, 44483, 45062, 45675, 45982, 46611, 46962, 46091, 44673, 43929, 43886, 44219, 45765, 46445, 47781, 45476, 45466, 46017, 46319, 46665, 43485, 46656, 45551, 42947, 43641, 44555, 44110, 42899, 44689, 44322, 43928, 45521, 46300, 45486, 42826, 44121, 43999, 44338, 45230, 45521, 45108, 44696, 45158, 45648, 46414, 46435, 45699, 44373, 45111, 46001, 45468, 45655, 45726, 42806, 44521, 43272, 43522, 43118, 43494, 41773, 40805, 42427, 43872, 44375, 43527, 43615, 43687, 44318, 44248, 49586, 43403, 44427, 43940, 43754, 44171, 49244, 44730, 45021, 44085, 44867, 45832, 46001, 45341, 45388],
      "WindowCenter": [10641.0, 10578.0, 10547.0, 10534.0, 10552.0, 10564.0, 10591.0, 10594.0, 10609.0, 10586.0, 10593.0, 10558.0, 10531.0, 10524.0, 10530.0, 10536.0, 10558.0, 10565.0, 10559.0, 10549.0, 10515.0, 10562.0, 10523.0, 10546.0, 10537.0, 10554.0, 10582.0, 10606.0, 10605.0, 10607.0, 10591.0, 10561.0, 10544.0, 10526.0, 10525.0, 10541.0, 10545.0, 10550.0, 10551.0, 10534.0, 10537.0, 10529.0, 10557.0, 10574.0, 10575.0, 10557.0, 10563.0, 10551.0, 10574.0, 10549.0, 10541.0, 10542.0, 10573.0, 10574.0, 10563.0, 10553.0, 10559.0, 10543.0, 10535.0, 10543.0, 10564.0, 10579.0, 10551.0, 10551.0, 10530.0, 10510.0, 10511.0, 10531.0, 10538.0, 10522.0, 10519.0, 10526.0, 10510.0, 10519.0, 10561.0, 10594.0, 10568.0, 10549.0, 10536.0, 10546.0, 10540.0, 10551.0, 10514.0, 10505.0, 10524.0, 10553.0, 10570.0, 10549.0, 10529.0, 10526.0, 10543.0, 10544.0, 10554.0, 10546.0, 10540.0, 10550.0, 10538.0, 10543.0, 10559.0, 10567.0, 10593.0, 10563.0, 10556.0, 10536.0, 10522.0, 10506.0, 10504.0, 10521.0, 10544.0, 10578.0, 10598.0, 10611.0, 10604.0, 10580.0, 10563.0, 10560.0, 10560.0, 10567.0, 10586.0, 10583.0, 10588.0, 10564.0, 10568.0, 10585.0, 10597.0, 10582.0, 10549.0, 10564.0, 10578.0, 10580.0, 10569.0, 10536.0, 10515.0, 10505.0, 10545.0, 10576.0, 10590.0, 10581.0, 10555.0, 10523.0, 10510.0, 10537.0, 10533.0, 10528.0, 10530.0, 10531.0, 10524.0, 10520.0, 10539.0, 10566.0, 10584.0, 10566.0, 10549.0, 10537.0, 10555.0, 10567.0, 10555.0, 10545.0, 10549.0, 10542.0, 10566.0, 10537.0, 10524.0, 10508.0, 10509.0, 10514.0, 10529.0, 10556.0, 10568.0, 10548.0, 10523.0, 10518.0, 10525.0, 10546.0, 10555.0, 10596.0, 10528.0, 10540.0, 10553.0, 10562.0, 10562.0, 10612.0, 10565.0, 10564.0, 10550.0, 10558.0, 10574.0, 10579.0, 10558.0, 10553.0],
      "WindowWidth": [22662.0, 22510.0, 22426.0, 22391.0, 22425.0, 22454.0, 22524.0, 22520.0, 22548.0, 22513.0, 22528.0, 22452.0, 22384.0, 22357.0, 22362.0, 22380.0, 22426.0, 22443.0, 22438.0, 22412.0, 22340.0, 22449.0, 22368.0, 22416.0, 22394.0, 22424.0, 22485.0, 22548.0, 22553.0, 22557.0, 22509.0, 22433.0, 22388.0, 22358.0, 22356.0, 22392.0, 22408.0, 22423.0, 22428.0, 22391.0, 22394.0, 22378.0, 22450.0, 22486.0, 22486.0, 22446.0, 22464.0, 22426.0, 22490.0, 22429.0, 22403.0, 22414.0, 22481.0, 22485.0, 22459.0, 22431.0, 22440.0, 22399.0, 22379.0, 22399.0, 22444.0, 22476.0, 22432.0, 22425.0, 22373.0, 22332.0, 22337.0, 22378.0, 22392.0, 22359.0, 22353.0, 22365.0, 22335.0, 22358.0, 22451.0, 22537.0, 22460.0, 22420.0, 22395.0, 22416.0, 22407.0, 22424.0, 22350.0, 22321.0, 22366.0, 22431.0, 22472.0, 22416.0, 22368.0, 22361.0, 22410.0, 22407.0, 22431.0, 22419.0, 22399.0, 22417.0, 22395.0, 22401.0, 22443.0, 22472.0, 22526.0, 22458.0, 22438.0, 22386.0, 22352.0, 22314.0, 22309.0, 22346.0, 22404.0, 22479.0, 22531.0, 22561.0, 22544.0, 22489.0, 22450.0, 22447.0, 22444.0, 22457.0, 22492.0, 22484.0, 22508.0, 22450.0, 22452.0, 22497.0, 22524.0, 22485.0, 22419.0, 22443.0, 22483.0, 22502.0, 22473.0, 22390.0, 22338.0, 22324.0, 22407.0, 22487.0, 22521.0, 22492.0, 22423.0, 22354.0, 22333.0, 22392.0, 22385.0, 22363.0, 22365.0, 22369.0, 22349.0, 22347.0, 22391.0, 22455.0, 22497.0, 22452.0, 22405.0, 22383.0, 22438.0, 22459.0, 22431.0, 22401.0, 22407.0, 22406.0, 22457.0, 22393.0, 22360.0, 22322.0, 22327.0, 22344.0, 22382.0, 22439.0, 22470.0, 22417.0, 22354.0, 22344.0, 22365.0, 22415.0, 22434.0, 22521.0, 22370.0, 22398.0, 22445.0, 22454.0, 22456.0, 22566.0, 22455.0, 22450.0, 22420.0, 22446.0, 22480.0, 22497.0, 22438.0, 22423.0]
    },
    "slices": {}
  }
}