{
  "AcquisitionMatrixPE": 104,
  "AcquisitionNumber": 1,
  "AcquisitionTime": "18:06:21.435000",
  "BandwidthPerPixelPhaseEncode": 17.17,
  "BaseResolution": 104,
  "BodyPartExamined": "BRAIN",
  "CoilString": "HC1-7;NC1_2",
  "ConsistencyInfo": "N4_VE11C_LATEST_20160120",
  "ConversionSoftware": "dcm2niix",
  "ConversionSoftwareVersion": "v1.0.20190902",
  "DerivedVendorReportedEchoSpacing": 0.000560011,
  "DeviceSerialNumber": "167006",
  "DwellTime": 2.1e-06,
  "EchoTime": 0.037,
  "EchoTrainLength": 104,
  "EffectiveEchoSpacing": 0.000560011,
  "FlipAngle": 52,
  "ImageComments": "Unaliased_MB4_PE3_LB",
  "ImageOrientationPatientDICOM": [0.994665, 0.0902866, 0.0499066, -0.0646708, 0.922632, -0.380221],
  "ImageType": [
    "ORIGINAL",
    "PRIMARY",
    "P",
    "MB",
    "ND",
    "MOSAIC"
],
  "ImagingFrequency": 123.259,
  "InPlanePhaseEncodingDirectionDICOM": "COL",
  "InstitutionAddress": "Chemin_Queen-Mary_4565_Montreal_District_CA_H3W_1W5",
  "InstitutionName": "IUGM",
  "InstitutionalDepartmentName": "Department",
  "MRAcquisitionType": "2D",
  "MagneticFieldStrength": 3,
  "Manufacturer": "Siemens",
  "ManufacturersModelName": "Prisma_fit",
  "Modality": "MR",
  "MultibandAccelerationFactor": 4,
  "PartialFourier": 1,
  "PatientPosition": "HFS",
  "PercentPhaseFOV": 100,
  "PhaseEncodingDirection": "j",
  "PhaseEncodingSteps": 104,
  "PhaseResolution": 1,
  "PixelBandwidth": 2290,
  "ProcedureStepDescription": "memory_things",
  "ProtocolName": "func_task-things_run-6",
  "PulseSequenceDetails": "%CustomerSeq%_cmrr_mbep2d_bold",
  "ReceiveCoilActiveElements": "HC1-7;NC1,2",
  "ReceiveCoilName": "HeadNeck_64",
  "ReconMatrixPE": 104,
  "RepetitionTime": 1.49,
  "SAR": 0.0404895,
  "ScanOptions": "FS",
  "ScanningSequence": "EP",
  "SequenceName": "epfid2d1_104",
  "SequenceVariant": "SK_SS",
  "SeriesDescription": "func_task-things_run-6",
  "SeriesNumber": 26,
  "ShimSetting": [634, -7208, -8828, 661, 69, 8, 23, 0],
  "SliceThickness": 2,
  "SliceTiming": [0, 0.7825, 0.0975, 0.88, 0.195, 0.98, 0.2925, 1.0775, 0.39, 1.175, 0.49, 1.2725, 0.5875, 1.37, 0.685, 0, 0.7825, 0.0975, 0.88, 0.195, 0.98, 0.2925, 1.0775, 0.39, 1.175, 0.49, 1.2725, 0.5875, 1.37, 0.685, 0, 0.7825, 0.0975, 0.88, 0.195, 0.98, 0.2925, 1.0775, 0.39, 1.175, 0.49, 1.2725, 0.5875, 1.37, 0.685, 0, 0.7825, 0.0975, 0.88, 0.195, 0.98, 0.2925, 1.0775, 0.39, 1.175, 0.49, 1.2725, 0.5875, 1.37, 0.685],
  "SoftwareVersions": "syngo_MR_E11",
  "SpacingBetweenSlices": 2,
  "StationName": "MRC35049",
  "TaskName": "things",
  "TotalReadoutTime": 0.0576811,
  "TxRefAmp": 254.624,
  "WipMemBlock": "51e82767-5e8e-4cb2-a2d9-f00727ff6ef7||Sequence: R016 ve11c/master r/e634e98; Dec 19 2017 11:00:25 by eja",
  "dcmmeta_affine": [
    [-1.989329218864441, -0.12934152781963348, 0.1607486456632614, 108.52136993408203],
    [-0.18057319521903992, 1.8452634811401367, -0.7499305605888367, -48.36959457397461],
    [0.09981322288513184, 0.760442852973938, 1.8470960855484009, -68.98951721191406],
    [0.0, 0.0, 0.0, 1.0]
],
  "dcmmeta_reorient_transform": [
    [0.0, -1.0, 0.0, 103.0],
    [1.0, 0.0, 0.0, 0.0],
    [0.0, 0.0, 1.0, 0.0],
    [0.0, 0.0, 0.0, 1.0]
],
  "dcmmeta_shape": [104, 104, 60, 190],
  "dcmmeta_slice_dim": 2,
  "dcmmeta_version": 0.6,
  "global": {
    "const": {
      "AcquisitionMatrix": [104, 0, 0, 104],
      "AngioFlag": "N",
      "BitsAllocated": 16,
      "BitsStored": 16,
      "BodyPartExamined": "BRAIN",
      "Columns": 832,
      "EchoNumbers": 1,
      "EchoTime": 37.0,
      "EchoTrainLength": 104,
      "FlipAngle": 52.0,
      "HighBit": 15,
      "ImageOrientationPatient": [0.99466459675489, 0.09028659998256, 0.04990661104529, -0.0646707673439, 0.92263176252258, -0.3802214126475],
      "ImagePositionPatient": [-772.23469812309, -879.09711477469, 249.80526759414],
      "ImageType": [
        "ORIGINAL",
        "PRIMARY",
        "P",
        "MB",
        "ND",
        "MOSAIC"
],
      "ImagedNucleus": "1H",
      "ImagingFrequency": 123.258979,
      "InPlanePhaseEncodingDirection": "COL",
      "LargestImagePixelValue": 4095,
      "MRAcquisitionType": "2D",
      "MagneticFieldStrength": 3.0,
      "Manufacturer": "SIEMENS",
      "ManufacturerModelName": "Prisma_fit",
      "Modality": "MR",
      "NumberOfAverages": 1.0,
      "NumberOfPhaseEncodingSteps": 104,
      "PercentPhaseFieldOfView": 100.0,
      "PercentSampling": 100.0,
      "PerformedProcedureStepStartTime": "170508.628000",
      "PhotometricInterpretation": "MONOCHROME2",
      "PixelBandwidth": 2290.0,
      "PixelRepresentation": 0,
      "PixelSpacing": [2.0, 2.0],
      "ProtocolName": "func_task-things_run-6",
      "RepetitionTime": 1490.0,
      "RescaleIntercept": -4096.0,
      "RescaleSlope": 2.0,
      "RescaleType": "US",
      "Rows": 832,
      "SAR": 0.04048949470707,
      "SamplesPerPixel": 1,
      "ScanOptions": "FS",
      "ScanningSequence": "EP",
      "SequenceName": "epfid2d1_104",
      "SequenceVariant": [
        "SK",
        "SS"
],
      "SeriesDescription": "func_task-things_run-6",
      "SeriesNumber": 26,
      "SeriesTime": "180738.630000",
      "SliceLocation": -36.855885303561,
      "SliceThickness": 2.0,
      "SmallestImagePixelValue": 0,
      "SoftwareVersions": "syngo MR E11",
      "SpacingBetweenSlices": 1.999999959038,
      "SpecificCharacterSet": "ISO_IR 100",
      "StudyID": "1",
      "StudyTime": "170508.559000",
      "TransmitCoilName": "Body",
      "VariableFlipAngleFlag": "N",
      "WindowCenterWidthExplanation": "Algo1",
      "dBdt": 0.0},
    "slices": {}
  },
  "time": {
    "samples": {
      "AcquisitionNumber": [1, 2, 3, 4, 5, 6, 7, 8, 9, 10, 11, 12, 13, 14, 15, 16, 17, 18, 19, 20, 21, 22, 23, 24, 25, 26, 27, 28, 29, 30, 31, 32, 33, 34, 35, 36, 37, 38, 39, 40, 41, 42, 43, 44, 45, 46, 47, 48, 49, 50, 51, 52, 53, 54, 55, 56, 57, 58, 59, 60, 61, 62, 63, 64, 65, 66, 67, 68, 69, 70, 71, 72, 73, 74, 75, 76, 77, 78, 79, 80, 81, 82, 83, 84, 85, 86, 87, 88, 89, 90, 91, 92, 93, 94, 95, 96, 97, 98, 99, 100, 101, 102, 103, 104, 105, 106, 107, 108, 109, 110, 111, 112, 113, 114, 115, 116, 117, 118, 119, 120, 121, 122, 123, 124, 125, 126, 127, 128, 129, 130, 131, 132, 133, 134, 135, 136, 137, 138, 139, 140, 141, 142, 143, 144, 145, 146, 147, 148, 149, 150, 151, 152, 153, 154, 155, 156, 157, 158, 159, 160, 161, 162, 163, 164, 165, 166, 167, 168, 169, 170, 171, 172, 173, 174, 175, 176, 177, 178, 179, 180, 181, 182, 183, 184, 185, 186, 187, 188, 189, 190],
      "AcquisitionTime": ["180621.435000", "180622.925000", "180624.415000", "180625.905000", "180627.395000", "180628.885000", "180630.375000", "180631.865000", "180633.355000", "180634.845000", "180636.335000", "180637.825000", "180639.315000", "180640.805000", "180642.295000", "180643.785000", "180645.275000", "180646.765000", "180648.255000", "180649.745000", "180651.235000", "180652.725000", "180654.215000", "180655.705000", "180657.195000", "180658.685000", "180700.175000", "180701.665000", "180703.155000", "180704.645000", "180706.135000", "180707.625000", "180709.115000", "180710.605000", "180712.095000", "180713.585000", "180715.075000", "180716.565000", "180718.055000", "180719.545000", "180721.035000", "180722.525000", "180724.015000", "180725.505000", "180726.995000", "180728.485000", "180729.975000", "180731.465000", "180732.955000", "180734.445000", "180735.935000", "180737.425000", "180738.915000", "180740.405000", "180741.895000", "180743.385000", "180744.875000", "180746.365000", "180747.855000", "180749.345000", "180750.835000", "180752.325000", "180753.815000", "180755.305000", "180756.795000", "180758.285000", "180759.775000", "180801.265000", "180802.755000", "180804.245000", "180805.735000", "180807.225000", "180808.715000", "180810.205000", "180811.695000", "180813.185000", "180814.675000", "180816.165000", "180817.655000", "180819.145000", "180820.635000", "180822.125000", "180823.615000", "180825.105000", "180826.595000", "180828.085000", "180829.575000", "180831.065000", "180832.555000", "180834.045000", "180835.535000", "180837.025000", "180838.515000", "180840.005000", "180841.495000", "180842.985000", "180844.475000", "180845.965000", "180847.455000", "180848.945000", "180850.435000", "180851.925000", "180853.415000", "180854.905000", "180856.395000", "180857.885000", "180859.375000", "180900.865000", "180902.355000", "180903.845000", "180905.335000", "180906.825000", "180908.315000", "180909.805000", "180911.295000", "180912.785000", "180914.275000", "180915.765000", "180917.255000", "180918.745000", "180920.235000", "180921.725000", "180923.215000", "180924.705000", "180926.195000", "180927.685000", "180929.175000", "180930.665000", "180932.155000", "180933.645000", "180935.135000", "180936.625000", "180938.115000", "180939.605000", "180941.095000", "180942.585000", "180944.075000", "180945.565000", "180947.055000", "180948.545000", "180950.035000", "180951.525000", "180953.015000", "180954.505000", "180955.995000", "180957.485000", "180958.975000", "181000.465000", "181001.955000", "181003.445000", "181004.935000", "181006.425000", "181007.915000", "181009.405000", "181010.895000", "181012.385000", "181013.875000", "181015.365000", "181016.855000", "181018.345000", "181019.835000", "181021.325000", "181022.815000", "181024.305000", "181025.795000", "181027.285000", "181028.775000", "181030.265000", "181031.755000", "181033.245000", "181034.735000", "181036.225000", "181037.715000", "181039.205000", "181040.695000", "181042.185000", "181043.675000", "181045.165000", "181046.655000", "181048.145000", "181049.635000", "181051.125000", "181052.615000", "181054.105000", "181055.595000", "181057.085000", "181058.575000", "181100.065000", "181101.555000", "181103.045000"],
      "ContentTime": ["180738.632000", "180738.635000", "180738.638000", "180738.640000", "180738.643000", "180738.646000", "180738.648000", "180738.651000", "180738.653000", "180738.656000", "180738.659000", "180738.661000", "180738.664000", "180738.666000", "180738.669000", "180738.672000", "180738.674000", "180738.677000", "180738.679000", "180738.682000", "180738.684000", "180738.687000", "180758.590000", "180758.593000", "180758.595000", "180758.598000", "180758.600000", "180758.603000", "180758.606000", "180758.608000", "180758.611000", "180758.613000", "180758.616000", "180758.618000", "180758.621000", "180758.624000", "180758.626000", "180758.629000", "180758.631000", "180758.634000", "180758.636000", "180758.639000", "180818.594000", "180818.597000", "180818.603000", "180818.605000", "180818.608000", "180818.611000", "180818.613000", "180818.616000", "180818.618000", "180818.621000", "180818.623000", "180818.626000", "180818.629000", "180818.631000", "180818.634000", "180818.636000", "180818.639000", "180818.642000", "180818.644000", "180818.647000", "180838.947000", "180838.950000", "180838.952000", "180838.955000", "180838.957000", "180838.960000", "180838.963000", "180838.965000", "180838.968000", "180838.970000", "180838.973000", "180838.975000", "180838.978000", "180838.981000", "180838.983000", "180838.986000", "180838.988000", "180838.991000", "180838.993000", "180838.996000", "180858.598000", "180858.601000", "180858.603000", "180858.606000", "180858.609000", "180858.611000", "180858.614000", "180858.617000", "180858.619000", "180858.622000", "180858.625000", "180858.627000", "180858.630000", "180858.632000", "180858.635000", "180858.637000", "180858.640000", "180858.643000", "180858.645000", "180858.648000", "180938.640000", "180938.643000", "180938.645000", "180938.648000", "180938.651000", "180938.653000", "180938.656000", "180938.658000", "180938.661000", "180938.663000", "180938.666000", "180938.669000", "180938.671000", "180938.674000", "180938.676000", "180938.679000", "180938.688000", "180938.691000", "180938.693000", "180938.696000", "180938.699000", "180938.701000", "180938.704000", "180938.706000", "180938.709000", "180938.712000", "180938.714000", "180938.717000", "180938.719000", "181018.620000", "181018.623000", "181018.625000", "181018.628000", "181018.630000", "181018.633000", "181018.636000", "181018.638000", "181018.641000", "181018.644000", "181018.646000", "181018.649000", "181018.651000", "181018.654000", "181018.656000", "181018.659000", "181018.662000", "181018.664000", "181018.667000", "181018.669000", "181018.672000", "181018.675000", "181018.677000", "181018.680000", "181018.682000", "181018.685000", "181018.688000", "181058.633000", "181058.636000", "181058.638000", "181058.641000", "181058.644000", "181058.646000", "181058.649000", "181058.652000", "181058.654000", "181058.657000", "181058.659000", "181058.662000", "181058.664000", "181058.667000", "181058.670000", "181058.672000", "181058.675000", "181058.677000", "181058.680000", "181058.683000", "181058.686000", "181058.688000", "181058.691000", "181058.694000", "181058.696000", "181058.699000", "181058.701000", "181105.439000", "181105.442000", "181105.444000", "181105.447000", "181105.449000"],
      "InstanceCreationTime": ["180738.632000", "180738.635000", "180738.638000", "180738.640000", "180738.643000", "180738.646000", "180738.648000", "180738.651000", "180738.653000", "180738.656000", "180738.659000", "180738.661000", "180738.664000", "180738.666000", "180738.669000", "180738.672000", "180738.674000", "180738.677000", "180738.679000", "180738.682000", "180738.684000", "180738.687000", "180758.590000", "180758.593000", "180758.595000", "180758.598000", "180758.600000", "180758.603000", "180758.606000", "180758.608000", "180758.611000", "180758.613000", "180758.616000", "180758.618000", "180758.621000", "180758.624000", "180758.626000", "180758.629000", "180758.631000", "180758.634000", "180758.636000", "180758.639000", "180818.594000", "180818.597000", "180818.603000", "180818.605000", "180818.608000", "180818.611000", "180818.613000", "180818.616000", "180818.618000", "180818.621000", "180818.623000", "180818.626000", "180818.629000", "180818.631000", "180818.634000", "180818.636000", "180818.639000", "180818.642000", "180818.644000", "180818.647000", "180838.947000", "180838.950000", "180838.952000", "180838.955000", "180838.957000", "180838.960000", "180838.963000", "180838.965000", "180838.968000", "180838.970000", "180838.973000", "180838.975000", "180838.978000", "180838.981000", "180838.983000", "180838.986000", "180838.988000", "180838.991000", "180838.993000", "180838.996000", "180858.598000", "180858.601000", "180858.603000", "180858.606000", "180858.609000", "180858.611000", "180858.614000", "180858.617000", "180858.619000", "180858.622000", "180858.625000", "180858.627000", "180858.630000", "180858.632000", "180858.635000", "180858.637000", "180858.640000", "180858.643000", "180858.645000", "180858.648000", "180938.640000", "180938.643000", "180938.645000", "180938.648000", "180938.651000", "180938.653000", "180938.656000", "180938.658000", "180938.661000", "180938.663000", "180938.666000", "180938.669000", "180938.671000", "180938.674000", "180938.676000", "180938.679000", "180938.688000", "180938.691000", "180938.693000", "180938.696000", "180938.699000", "180938.701000", "180938.704000", "180938.706000", "180938.709000", "180938.712000", "180938.714000", "180938.717000", "180938.719000", "181018.620000", "181018.623000", "181018.625000", "181018.628000", "181018.630000", "181018.633000", "181018.636000", "181018.638000", "181018.641000", "181018.644000", "181018.646000", "181018.649000", "181018.651000", "181018.654000", "181018.656000", "181018.659000", "181018.662000", "181018.664000", "181018.667000", "181018.669000", "181018.672000", "181018.675000", "181018.677000", "181018.680000", "181018.682000", "181018.685000", "181018.688000", "181058.633000", "181058.636000", "181058.638000", "181058.641000", "181058.644000", "181058.646000", "181058.649000", "181058.652000", "181058.654000", "181058.657000", "181058.659000", "181058.662000", "181058.664000", "181058.667000", "181058.670000", "181058.672000", "181058.675000", "181058.677000", "181058.680000", "181058.683000", "181058.686000", "181058.688000", "181058.691000", "181058.694000", "181058.696000", "181058.699000", "181058.701000", "181105.439000", "181105.442000", "181105.444000", "181105.447000", "181105.449000"],
      "InstanceNumber": [1, 2, 3, 4, 5, 6, 7, 8, 9, 10, 11, 12, 13, 14, 15, 16, 17, 18, 19, 20, 21, 22, 23, 24, 25, 26, 27, 28, 29, 30, 31, 32, 33, 34, 35, 36, 37, 38, 39, 40, 41, 42, 43, 44, 45, 46, 47, 48, 49, 50, 51, 52, 53, 54, 55, 56, 57, 58, 59, 60, 61, 62, 63, 64, 65, 66, 67, 68, 69, 70, 71, 72, 73, 74, 75, 76, 77, 78, 79, 80, 81, 82, 83, 84, 85, 86, 87, 88, 89, 90, 91, 92, 93, 94, 95, 96, 97, 98, 99, 100, 101, 102, 103, 104, 105, 106, 107, 108, 109, 110, 111, 112, 113, 114, 115, 116, 117, 118, 119, 120, 121, 122, 123, 124, 125, 126, 127, 128, 129, 130, 131, 132, 133, 134, 135, 136, 137, 138, 139, 140, 141, 142, 143, 144, 145, 146, 147, 148, 149, 150, 151, 152, 153, 154, 155, 156, 157, 158, 159, 160, 161, 162, 163, 164, 165, 166, 167, 168, 169, 170, 171, 172, 173, 174, 175, 176, 177, 178, 179, 180, 181, 182, 183, 184, 185, 186, 187, 188, 189, 190],
      "WindowCenter": [4828.0, 4826.0, 4806.0, 4826.0, 4832.0, 4838.0, 4862.0, 4836.0, 4828.0, 4804.0, 4804.0, 4826.0, 4832.0, 4834.0, 4830.0, 4834.0, 4836.0, 4866.0, 4876.0, 4882.0, 4882.0, 4870.0, 4830.0, 4806.0, 4800.0, 4800.0, 4830.0, 4834.0, 4868.0, 4870.0, 4864.0, 4836.0, 4838.0, 4836.0, 4832.0, 4828.0, 4806.0, 4804.0, 4830.0, 4840.0, 4868.0, 4872.0, 4864.0, 4832.0, 4812.0, 4832.0, 4864.0, 4874.0, 4882.0, 4876.0, 4870.0, 4826.0, 4804.0, 4798.0, 4804.0, 4832.0, 4866.0, 4874.0, 4878.0, 4874.0, 4838.0, 4830.0, 4828.0, 4828.0, 4828.0, 4830.0, 4834.0, 4862.0, 4838.0, 4862.0, 4840.0, 4838.0, 4834.0, 4834.0, 4834.0, 4830.0, 4828.0, 4826.0, 4828.0, 4862.0, 4866.0, 4866.0, 4832.0, 4834.0, 4832.0, 4836.0, 4836.0, 4834.0, 4832.0, 4830.0, 4838.0, 4834.0, 4830.0, 4830.0, 4832.0, 4830.0, 4830.0, 4828.0, 4836.0, 4832.0, 4830.0, 4828.0, 4832.0, 4834.0, 4832.0, 4830.0, 4830.0, 4830.0, 4830.0, 4832.0, 4828.0, 4826.0, 4830.0, 4830.0, 4830.0, 4832.0, 4830.0, 4830.0, 4830.0, 4830.0, 4804.0, 4828.0, 4828.0, 4830.0, 4826.0, 4830.0, 4832.0, 4832.0, 4832.0, 4830.0, 4828.0, 4806.0, 4830.0, 4828.0, 4826.0, 4806.0, 4828.0, 4830.0, 4828.0, 4826.0, 4828.0, 4830.0, 4830.0, 4802.0, 4804.0, 4806.0, 4826.0, 4828.0, 4834.0, 4828.0, 4806.0, 4826.0, 4826.0, 4804.0, 4824.0, 4828.0, 4826.0, 4828.0, 4828.0, 4802.0, 4828.0, 4830.0, 4830.0, 4830.0, 4806.0, 4802.0, 4804.0, 4828.0, 4832.0, 4826.0, 4828.0, 4828.0, 4804.0, 4828.0, 4826.0, 4804.0, 4804.0, 4826.0, 4800.0, 4826.0, 4828.0, 4828.0, 4828.0, 4826.0, 4802.0, 4804.0, 4804.0, 4804.0, 4826.0, 4826.0],
      "WindowWidth": [18644.0, 18646.0, 18616.0, 18646.0, 18640.0, 18636.0, 18670.0, 18634.0, 18648.0, 18622.0, 18622.0, 18652.0, 18648.0, 18648.0, 18652.0, 18654.0, 18648.0, 18674.0, 18660.0, 18646.0, 18664.0, 18676.0, 18644.0, 18630.0, 18614.0, 18624.0, 18656.0, 18640.0, 18678.0, 18674.0, 18670.0, 18640.0, 18640.0, 18646.0, 18646.0, 18648.0, 18618.0, 18612.0, 18650.0, 18640.0, 18668.0, 18666.0, 18680.0, 18652.0, 18624.0, 18648.0, 18686.0, 18662.0, 18650.0, 18666.0, 18678.0, 18646.0, 18622.0, 18612.0, 18620.0, 18654.0, 18670.0, 18668.0, 18664.0, 18668.0, 18652.0, 18652.0, 18652.0, 18648.0, 18650.0, 18652.0, 18644.0, 18678.0, 18646.0, 18674.0, 18646.0, 18646.0, 18648.0, 18646.0, 18646.0, 18650.0, 18646.0, 18652.0, 18648.0, 18674.0, 18672.0, 18676.0, 18646.0, 18662.0, 18652.0, 18650.0, 18644.0, 18650.0, 18650.0, 18646.0, 18646.0, 18644.0, 18642.0, 18646.0, 18646.0, 18644.0, 18648.0, 18648.0, 18648.0, 18640.0, 18644.0, 18646.0, 18648.0, 18646.0, 18642.0, 18648.0, 18642.0, 18648.0, 18646.0, 18644.0, 18648.0, 18642.0, 18642.0, 18646.0, 18644.0, 18640.0, 18642.0, 18642.0, 18644.0, 18640.0, 18614.0, 18640.0, 18640.0, 18646.0, 18640.0, 18648.0, 18644.0, 18640.0, 18644.0, 18642.0, 18646.0, 18614.0, 18648.0, 18644.0, 18638.0, 18616.0, 18642.0, 18644.0, 18638.0, 18642.0, 18642.0, 18644.0, 18642.0, 18610.0, 18610.0, 18616.0, 18642.0, 18638.0, 18640.0, 18634.0, 18610.0, 18640.0, 18644.0, 18612.0, 18638.0, 18638.0, 18642.0, 18644.0, 18640.0, 18610.0, 18642.0, 18644.0, 18640.0, 18644.0, 18614.0, 18612.0, 18620.0, 18642.0, 18646.0, 18638.0, 18640.0, 18640.0, 18606.0, 18644.0, 18642.0, 18612.0, 18608.0, 18644.0, 18608.0, 18642.0, 18640.0, 18640.0, 18638.0, 18642.0, 18612.0, 18610.0, 18612.0, 18610.0, 18644.0, 18640.0]
    },
    "slices": {}
  }
}